Frame Number, Queue Density, Dynamic Density
1, 0.0100123, 0
2, 0.0214398, 0.0096929
3, 0.0345849, 0.0213812
4, 0.0485849, 0.033429
5, 0.062858, 0.0456713
6, 0.0791574, 0.0600309
7, 0.0953596, 0.0737701
8, 0.113063, 0.0888318
9, 0.134259, 0.107532
10, 0.156576, 0.126188
11, 0.169238, 0.145245
12, 0.182179, 0.153582
13, 0.194414, 0.158387
14, 0.206932, 0.163136
15, 0.218563, 0.16423
16, 0.22717, 0.163927
17, 0.235534, 0.167335
18, 0.241762, 0.170347
19, 0.244065, 0.169299
20, 0.245613, 0.168275
21, 0.246735, 0.166088
22, 0.246005, 0.162866
23, 0.244497, 0.157992
24, 0.241935, 0.151446
25, 0.239006, 0.145392
26, 0.237207, 0.137174
27, 0.235417, 0.124423
28, 0.235881, 0.110895
29, 0.237454, 0.0987099
30, 0.23746, 0.0848503
31, 0.237244, 0.0712407
32, 0.237671, 0.060321
33, 0.238031, 0.0524028
34, 0.238477, 0.0454074
35, 0.239594, 0.0423472
36, 0.240972, 0.0414259
37, 0.241951, 0.0429985
38, 0.241622, 0.0432639
39, 0.241969, 0.0434398
40, 0.243681, 0.0457099
41, 0.250014, 0.0520386
42, 0.26041, 0.0621281
43, 0.276035, 0.0774336
44, 0.294218, 0.0960664
45, 0.313299, 0.115605
46, 0.33388, 0.135877
47, 0.355443, 0.15548
48, 0.37767, 0.175978
49, 0.398619, 0.198193
50, 0.420508, 0.221142
51, 0.441478, 0.241086
52, 0.459901, 0.254349
53, 0.473897, 0.262247
54, 0.485684, 0.266048
55, 0.494863, 0.267099
56, 0.501809, 0.266165
57, 0.508761, 0.264287
58, 0.516914, 0.263497
59, 0.526247, 0.263858
60, 0.533643, 0.264909
61, 0.539316, 0.265639
62, 0.546002, 0.268569
63, 0.552613, 0.270782
64, 0.559074, 0.271843
65, 0.568998, 0.269265
66, 0.579789, 0.262838
67, 0.589525, 0.257511
68, 0.598491, 0.249565
69, 0.606968, 0.238215
70, 0.615691, 0.225894
71, 0.623406, 0.213052
72, 0.627244, 0.200386
73, 0.630906, 0.188585
74, 0.635151, 0.177778
75, 0.636425, 0.171515
76, 0.636556, 0.168576
77, 0.639195, 0.164875
78, 0.640727, 0.160204
79, 0.641586, 0.153198
80, 0.642809, 0.146151
81, 0.644483, 0.138366
82, 0.64786, 0.130405
83, 0.650987, 0.121678
84, 0.653883, 0.113576
85, 0.658761, 0.105074
86, 0.664448, 0.0972566
87, 0.667691, 0.090152
88, 0.669109, 0.0859194
89, 0.671205, 0.0831559
90, 0.673849, 0.0773997
91, 0.677528, 0.0716559
92, 0.680182, 0.0656343
93, 0.679431, 0.0603627
94, 0.679654, 0.0565378
95, 0.679996, 0.0528434
96, 0.680182, 0.0497716
97, 0.681632, 0.0462118
98, 0.684076, 0.0428464
99, 0.686498, 0.0401026
100, 0.689255, 0.0385339
101, 0.688365, 0.0378295
102, 0.685907, 0.0378681
103, 0.687198, 0.0378333
104, 0.687723, 0.0374753
105, 0.688356, 0.0370887
106, 0.688978, 0.0373704
107, 0.687921, 0.0366381
108, 0.688557, 0.0356836
109, 0.687503, 0.0352616
110, 0.685732, 0.0355147
111, 0.685525, 0.0358557
112, 0.687081, 0.0360455
113, 0.68835, 0.0361134
114, 0.687165, 0.0356775
115, 0.685485, 0.0353102
116, 0.684122, 0.033956
117, 0.684509, 0.0340255
118, 0.684613, 0.0340532
119, 0.684485, 0.0339236
120, 0.684924, 0.0330857
121, 0.685132, 0.0321825
122, 0.685261, 0.0313275
123, 0.685557, 0.0315008
124, 0.688614, 0.032353
125, 0.69175, 0.0334919
126, 0.694332, 0.0340158
127, 0.69575, 0.0350849
128, 0.695583, 0.0356593
129, 0.695371, 0.0353515
130, 0.695107, 0.0358175
131, 0.69502, 0.0358657
132, 0.695798, 0.0363094
133, 0.696166, 0.0363376
134, 0.692888, 0.0366389
135, 0.689554, 0.0367184
136, 0.686899, 0.0385602
137, 0.68429, 0.0393885
138, 0.682172, 0.0407052
139, 0.682882, 0.0430895
140, 0.683956, 0.0456628
141, 0.685609, 0.0494977
142, 0.684502, 0.0540849
143, 0.684574, 0.0623349
144, 0.68933, 0.0758843
145, 0.695838, 0.0964653
146, 0.704412, 0.121336
147, 0.71103, 0.157432
148, 0.720119, 0.203795
149, 0.728076, 0.255238
150, 0.732188, 0.312098
151, 0.732576, 0.372872
152, 0.732402, 0.433135
153, 0.725976, 0.492433
154, 0.717722, 0.54532
155, 0.704986, 0.595313
156, 0.687755, 0.641156
157, 0.670157, 0.670157
158, 0.654103, 0.654103
159, 0.632916, 0.632916
160, 0.618111, 0.618111
161, 0.609255, 0.609255
162, 0.601453, 0.601453
163, 0.59875, 0.59875
164, 0.59812, 0.59812
165, 0.597412, 0.597412
166, 0.598716, 0.598716
167, 0.605034, 0.605034
168, 0.607793, 0.607793
169, 0.614365, 0.614365
170, 0.619828, 0.619828
171, 0.624359, 0.624359
172, 0.630165, 0.630165
173, 0.631922, 0.631922
174, 0.621809, 0.621809
175, 0.607223, 0.607223
176, 0.591447, 0.591447
177, 0.574644, 0.574644
178, 0.555976, 0.555976
179, 0.533902, 0.533902
180, 0.50904, 0.50904
181, 0.477783, 0.477783
182, 0.441943, 0.441943
183, 0.408389, 0.408389
184, 0.37689, 0.37689
185, 0.348582, 0.348582
186, 0.319247, 0.319247
187, 0.288329, 0.288329
188, 0.265946, 0.265946
189, 0.258196, 0.258196
190, 0.26144, 0.26144
191, 0.272684, 0.272684
192, 0.283826, 0.283826
193, 0.290636, 0.290636
194, 0.295653, 0.295653
195, 0.301518, 0.301518
196, 0.300752, 0.300752
197, 0.293145, 0.293145
198, 0.273836, 0.273836
199, 0.243285, 0.243285
200, 0.203047, 0.203047
201, 0.171179, 0.171179
202, 0.160405, 0.160405
203, 0.162872, 0.162872
204, 0.17245, 0.17245
205, 0.178294, 0.178294
206, 0.184647, 0.184647
207, 0.190216, 0.190216
208, 0.192892, 0.192892
209, 0.193889, 0.193889
210, 0.195611, 0.195611
211, 0.192665, 0.192665
212, 0.181108, 0.181108
213, 0.167381, 0.167381
214, 0.156897, 0.156897
215, 0.152672, 0.152672
216, 0.153583, 0.153583
217, 0.162133, 0.162133
218, 0.1743, 0.1743
219, 0.182792, 0.182792
220, 0.184566, 0.184566
221, 0.176292, 0.176292
222, 0.158419, 0.158419
223, 0.135391, 0.135391
224, 0.111551, 0.111551
225, 0.0885563, 0.0885563
226, 0.0687905, 0.0687905
227, 0.0537986, 0.0537986
228, 0.0448881, 0.0448881
229, 0.0440887, 0.0440887
230, 0.0497917, 0.0497917
231, 0.0594506, 0.0594506
232, 0.0686204, 0.0686204
233, 0.0752685, 0.0752685
234, 0.0784738, 0.0784738
235, 0.0806258, 0.0806258
236, 0.0804977, 0.0804977
237, 0.0758094, 0.0758094
238, 0.0691057, 0.0691057
239, 0.0640972, 0.0640972
240, 0.0556937, 0.0556937
241, 0.0477276, 0.0477276
242, 0.041652, 0.041652
243, 0.0352631, 0.0352631
244, 0.0354853, 0.0354853
245, 0.0375756, 0.0375756
246, 0.0429838, 0.0429838
247, 0.0472828, 0.0472828
248, 0.0491971, 0.0491971
249, 0.0467149, 0.0467149
250, 0.0471848, 0.0471848
251, 0.0482195, 0.0482195
252, 0.0517242, 0.0517242
253, 0.0574526, 0.0574526
254, 0.0602666, 0.0602666
255, 0.0620505, 0.0620505
256, 0.0618546, 0.0618546
257, 0.0581192, 0.0581192
258, 0.0558237, 0.0558237
259, 0.0543492, 0.0543492
260, 0.0520374, 0.0520374
261, 0.0476701, 0.0476701
262, 0.0415621, 0.0415621
263, 0.0392242, 0.0392242
264, 0.0391362, 0.0391362
265, 0.0439973, 0.0439973
266, 0.0526107, 0.0526107
267, 0.0677801, 0.0677801
268, 0.0839008, 0.0839008
269, 0.0942465, 0.0913742
270, 0.0996879, 0.0903592
271, 0.104348, 0.0919275
272, 0.108319, 0.0962222
273, 0.110973, 0.102074
274, 0.113095, 0.11217
275, 0.111535, 0.111535
276, 0.108014, 0.108014
277, 0.103824, 0.103824
278, 0.100971, 0.100971
279, 0.103671, 0.103671
280, 0.111652, 0.111652
281, 0.120867, 0.120867
282, 0.130677, 0.130677
283, 0.138359, 0.138359
284, 0.142735, 0.142735
285, 0.146692, 0.146692
286, 0.149584, 0.149584
287, 0.151768, 0.151768
288, 0.153005, 0.153005
289, 0.155186, 0.148658
290, 0.15784, 0.139858
291, 0.159706, 0.129142
292, 0.16065, 0.115633
293, 0.162024, 0.101716
294, 0.164821, 0.0896265
295, 0.171287, 0.083625
296, 0.181889, 0.0828704
297, 0.196861, 0.0887431
298, 0.21419, 0.100238
299, 0.233387, 0.118547
300, 0.255849, 0.141363
301, 0.281606, 0.167562
302, 0.313032, 0.198954
303, 0.346187, 0.234394
304, 0.378742, 0.26999
305, 0.407522, 0.297547
306, 0.432914, 0.319586
307, 0.4564, 0.337278
308, 0.4761, 0.351938
309, 0.497853, 0.361377
310, 0.515618, 0.366299
311, 0.531303, 0.364939
312, 0.538715, 0.357525
313, 0.545216, 0.340754
314, 0.551588, 0.322561
315, 0.558755, 0.306704
316, 0.566071, 0.29166
317, 0.568783, 0.2756
318, 0.573525, 0.257203
319, 0.577632, 0.240137
320, 0.582649, 0.220678
321, 0.58735, 0.203197
322, 0.592902, 0.184362
323, 0.59911, 0.170196
324, 0.603717, 0.157417
325, 0.606883, 0.145837
326, 0.60808, 0.135029
327, 0.611721, 0.125489
328, 0.615346, 0.115535
329, 0.616615, 0.103564
330, 0.616941, 0.0917269
331, 0.617304, 0.0812778
332, 0.615302, 0.07474
333, 0.611981, 0.0680787
334, 0.611482, 0.061267
335, 0.611697, 0.0543503
336, 0.61399, 0.0475556
337, 0.617019, 0.0410679
338, 0.619096, 0.0357068
339, 0.616096, 0.0324012
340, 0.613658, 0.0322346
341, 0.611131, 0.0327701
342, 0.61332, 0.0338426
343, 0.615735, 0.0348858
344, 0.616748, 0.0357423
345, 0.616818, 0.0361528
346, 0.616387, 0.0353549
347, 0.613159, 0.0343858
348, 0.610364, 0.0335633
349, 0.61163, 0.0336096
350, 0.613508, 0.0329892
351, 0.614477, 0.0316821
352, 0.612296, 0.0295903
353, 0.61151, 0.0276867
354, 0.61165, 0.0252253
355, 0.613207, 0.0232986
356, 0.614611, 0.0219128
357, 0.616732, 0.0214352
358, 0.619324, 0.0217647
359, 0.621374, 0.0212886
360, 0.621262, 0.019956
361, 0.621682, 0.0185008
362, 0.622691, 0.0186165
363, 0.623237, 0.0194051
364, 0.625938, 0.0204421
365, 0.627429, 0.0210347
366, 0.628309, 0.0215116
367, 0.628216, 0.0229082
368, 0.626788, 0.0242539
369, 0.626415, 0.0248958
370, 0.626713, 0.0293835
371, 0.627547, 0.0352562
372, 0.629817, 0.0398183
373, 0.630947, 0.0441393
374, 0.62953, 0.0483495
375, 0.626817, 0.0532886
376, 0.624318, 0.0591605
377, 0.618751, 0.0645779
378, 0.614988, 0.0705455
379, 0.611155, 0.0762801
380, 0.608046, 0.0803974
381, 0.605333, 0.0839313
382, 0.605113, 0.0874309
383, 0.605821, 0.0889109
384, 0.608222, 0.0888997
385, 0.612513, 0.0899583
386, 0.617129, 0.0907762
387, 0.622709, 0.0910525
388, 0.62819, 0.0898349
389, 0.633422, 0.0878974
390, 0.638877, 0.0836836
391, 0.643944, 0.077402
392, 0.646384, 0.0702238
393, 0.648297, 0.0649182
394, 0.648682, 0.0609144
395, 0.645307, 0.0563549
396, 0.642887, 0.0506744
397, 0.646378, 0.0442068
398, 0.649899, 0.0400833
399, 0.652316, 0.036088
400, 0.650201, 0.0327793
401, 0.647613, 0.0309136
402, 0.646253, 0.0308264
403, 0.644428, 0.0306335
404, 0.645921, 0.0298472
405, 0.647598, 0.0276204
406, 0.648227, 0.0259151
407, 0.649037, 0.0267323
408, 0.650291, 0.0263264
409, 0.6534, 0.0265887
410, 0.658611, 0.0280309
411, 0.66366, 0.0313056
412, 0.66718, 0.0339275
413, 0.669486, 0.0357978
414, 0.669334, 0.044088
415, 0.669462, 0.0578951
416, 0.672135, 0.0750108
417, 0.670635, 0.0947585
418, 0.670005, 0.122133
419, 0.669148, 0.156821
420, 0.667695, 0.196834
421, 0.669212, 0.243035
422, 0.671884, 0.290584
423, 0.675213, 0.337489
424, 0.67447, 0.382889
425, 0.6745, 0.424659
426, 0.66645, 0.471632
427, 0.660584, 0.513651
428, 0.655434, 0.550929
429, 0.652345, 0.57892
430, 0.654811, 0.598985
431, 0.653458, 0.611257
432, 0.649078, 0.623262
433, 0.642745, 0.637673
434, 0.638489, 0.638489
435, 0.638449, 0.638449
436, 0.64233, 0.64233
437, 0.647182, 0.647182
438, 0.648112, 0.648112
439, 0.64513, 0.64513
440, 0.632899, 0.632899
441, 0.618307, 0.618307
442, 0.604804, 0.604804
443, 0.59586, 0.59586
444, 0.589321, 0.589321
445, 0.583375, 0.583375
446, 0.583916, 0.583916
447, 0.580409, 0.580409
448, 0.575912, 0.575912
449, 0.565158, 0.565158
450, 0.557609, 0.557609
451, 0.554746, 0.554746
452, 0.550197, 0.550197
453, 0.548322, 0.548322
454, 0.541993, 0.541993
455, 0.530696, 0.530696
456, 0.512777, 0.512777
457, 0.496519, 0.496519
458, 0.483455, 0.483455
459, 0.477147, 0.477147
460, 0.474065, 0.474065
461, 0.467946, 0.467946
462, 0.460743, 0.460743
463, 0.444743, 0.444743
464, 0.433232, 0.433232
465, 0.423789, 0.423789
466, 0.418877, 0.418877
467, 0.413053, 0.413053
468, 0.401053, 0.401053
469, 0.387325, 0.387325
470, 0.372031, 0.372031
471, 0.361279, 0.361279
472, 0.359933, 0.359933
473, 0.360534, 0.360534
474, 0.358508, 0.358508
475, 0.352086, 0.352086
476, 0.3348, 0.3348
477, 0.313285, 0.313285
478, 0.290748, 0.290748
479, 0.264049, 0.264049
480, 0.234843, 0.234843
481, 0.201228, 0.201228
482, 0.163629, 0.163629
483, 0.127933, 0.127933
484, 0.0933661, 0.0933661
485, 0.0632631, 0.0632631
486, 0.0413221, 0.0413221
487, 0.0254695, 0.0254695
488, 0.0151497, 0.0151497
489, 0.0109537, 0.0109537
490, 0.0108056, 0.0108056
491, 0.0117022, 0.0117022
492, 0.0144367, 0.0144367
493, 0.0224676, 0.0224676
494, 0.0318565, 0.0318565
495, 0.0421798, 0.0421798
496, 0.0496682, 0.0496682
497, 0.0549714, 0.0549714
498, 0.0591042, 0.0591042
499, 0.0631566, 0.0631566
500, 0.0682461, 0.0682461
501, 0.0741219, 0.0741219
502, 0.075978, 0.075978
503, 0.0698052, 0.0698052
504, 0.0612002, 0.0612002
505, 0.0557704, 0.0557704
506, 0.0624024, 0.0624024
507, 0.0811215, 0.0811215
508, 0.105888, 0.105888
509, 0.127925, 0.127925
510, 0.145619, 0.145619
511, 0.155068, 0.155068
512, 0.157953, 0.157953
513, 0.156775, 0.156775
514, 0.155274, 0.155274
515, 0.149421, 0.149421
516, 0.134314, 0.134314
517, 0.109409, 0.109409
518, 0.0796474, 0.0796474
519, 0.0522145, 0.0522145
520, 0.0278611, 0.0278611
521, 0.0112461, 0.0112461
522, 0.00340201, 0.00340201
523, 0.00219059, 0.00219059
524, 0.00219059, 0.00219059
525, 0.0020108, 0.0020108
526, 0.00438272, 0.00438272
527, 0.00967978, 0.00967978
528, 0.0154653, 0.0154653
529, 0.0236991, 0.0236991
530, 0.0361088, 0.0319363
531, 0.0495363, 0.0428233
532, 0.0626157, 0.0543719
533, 0.0748395, 0.0642716
534, 0.0887461, 0.0782631
535, 0.104472, 0.0962978
536, 0.120914, 0.114951
537, 0.134537, 0.131199
538, 0.148679, 0.148679
539, 0.164063, 0.164063
540, 0.175477, 0.175477
541, 0.18472, 0.182076
542, 0.19272, 0.191079
543, 0.204294, 0.201972
544, 0.220784, 0.213313
545, 0.242568, 0.22417
546, 0.260797, 0.232844
547, 0.277214, 0.243267
548, 0.29313, 0.249282
549, 0.310995, 0.257968
550, 0.331873, 0.270506
551, 0.355605, 0.286089
552, 0.382804, 0.299152
553, 0.410583, 0.309048
554, 0.434812, 0.312831
555, 0.451675, 0.312384
556, 0.470203, 0.311318
557, 0.49299, 0.310238
558, 0.517521, 0.310549
559, 0.538105, 0.305901
560, 0.55399, 0.299771
561, 0.569058, 0.291027
562, 0.583956, 0.280193
563, 0.596054, 0.268199
564, 0.60538, 0.258629
565, 0.617907, 0.254754
566, 0.628989, 0.250512
567, 0.638616, 0.240631
568, 0.646493, 0.225156
569, 0.653436, 0.212215
570, 0.659322, 0.199031
571, 0.666134, 0.18748
572, 0.677392, 0.178079
573, 0.687871, 0.169541
