Frame Number, Queue Density, Dynamic Density
1, 0.008941, 0.000417
2, 0.019395, 0.003731
3, 0.030273, 0.008642
4, 0.041375, 0.014687
5, 0.053458, 0.022384
6, 0.065344, 0.030775
7, 0.077872, 0.040772
8, 0.091184, 0.051573
9, 0.104458, 0.062511
10, 0.117529, 0.073165
11, 0.121613, 0.083276
12, 0.124656, 0.090969
13, 0.126920, 0.096866
14, 0.129207, 0.101299
15, 0.130370, 0.103775
16, 0.132133, 0.105884
17, 0.133339, 0.106616
18, 0.133873, 0.105407
19, 0.134685, 0.104361
20, 0.135775, 0.103602
21, 0.137120, 0.102636
22, 0.138296, 0.101730
23, 0.140290, 0.100120
24, 0.142136, 0.098383
25, 0.144401, 0.096432
26, 0.146648, 0.094991
27, 0.149117, 0.092275
28, 0.152133, 0.090836
29, 0.154762, 0.089867
30, 0.157343, 0.088287
31, 0.159923, 0.087164
32, 0.162275, 0.086306
33, 0.164151, 0.085892
34, 0.166046, 0.086506
35, 0.168154, 0.087568
36, 0.169290, 0.087951
37, 0.170086, 0.089145
38, 0.170398, 0.090531
39, 0.170886, 0.090691
40, 0.171380, 0.090747
41, 0.171880, 0.091361
42, 0.172491, 0.090481
43, 0.172972, 0.090571
44, 0.173478, 0.089809
45, 0.173111, 0.088728
46, 0.173457, 0.087454
47, 0.174160, 0.086648
48, 0.174253, 0.085259
49, 0.174901, 0.083818
50, 0.175667, 0.083599
51, 0.176512, 0.082426
52, 0.176994, 0.081648
53, 0.178185, 0.080818
54, 0.179315, 0.080204
55, 0.181432, 0.080151
56, 0.183809, 0.079991
57, 0.185883, 0.079275
58, 0.189247, 0.079849
59, 0.192130, 0.080951
60, 0.195299, 0.081083
61, 0.198090, 0.081340
62, 0.200713, 0.082580
63, 0.202991, 0.083145
64, 0.205164, 0.083738
65, 0.206802, 0.084176
66, 0.207975, 0.084821
67, 0.209281, 0.085497
68, 0.209472, 0.085006
69, 0.209608, 0.084228
70, 0.209099, 0.083787
71, 0.208679, 0.083448
72, 0.208870, 0.082120
73, 0.208994, 0.081009
74, 0.209793, 0.079593
75, 0.210497, 0.077762
76, 0.210886, 0.075315
77, 0.211364, 0.073704
78, 0.212779, 0.070519
79, 0.214270, 0.067596
80, 0.215937, 0.065892
81, 0.218384, 0.064333
82, 0.220532, 0.062870
83, 0.223409, 0.062096
84, 0.225850, 0.062198
85, 0.229211, 0.063719
86, 0.233705, 0.066951
87, 0.237983, 0.069503
88, 0.242272, 0.074127
89, 0.246935, 0.079787
90, 0.252306, 0.084904
91, 0.257370, 0.090614
92, 0.262568, 0.096429
93, 0.267062, 0.101466
94, 0.271099, 0.106167
95, 0.272728, 0.111448
96, 0.274086, 0.116244
97, 0.275167, 0.120926
98, 0.276426, 0.125089
99, 0.276525, 0.127386
100, 0.276309, 0.128506
101, 0.275420, 0.129616
102, 0.274056, 0.129816
103, 0.273012, 0.128542
104, 0.272210, 0.127023
105, 0.272747, 0.123755
106, 0.272401, 0.120230
107, 0.272414, 0.116943
108, 0.271870, 0.113761
109, 0.272099, 0.111895
110, 0.272506, 0.110889
111, 0.273389, 0.109446
112, 0.275173, 0.108736
113, 0.276259, 0.110353
114, 0.277611, 0.111560
115, 0.279852, 0.113708
116, 0.282463, 0.116035
117, 0.285198, 0.118174
118, 0.287858, 0.120298
119, 0.290661, 0.122710
120, 0.292562, 0.125775
121, 0.294023, 0.128281
122, 0.295091, 0.131167
123, 0.296789, 0.133349
124, 0.298079, 0.136136
125, 0.298696, 0.138940
126, 0.299628, 0.140395
127, 0.300177, 0.142031
128, 0.300603, 0.143674
129, 0.301202, 0.143995
130, 0.302245, 0.143773
131, 0.303759, 0.144690
132, 0.305432, 0.144801
133, 0.306747, 0.144881
134, 0.308062, 0.145202
135, 0.309339, 0.144744
136, 0.310525, 0.144535
137, 0.312111, 0.143903
138, 0.313948, 0.143048
139, 0.315232, 0.142204
140, 0.317352, 0.141590
141, 0.319009, 0.139472
142, 0.319855, 0.137940
143, 0.320503, 0.136606
144, 0.321052, 0.134241
145, 0.320009, 0.132539
146, 0.318657, 0.132255
147, 0.317164, 0.131671
148, 0.315340, 0.130333
149, 0.313759, 0.130480
150, 0.311497, 0.129144
151, 0.308877, 0.128227
152, 0.306556, 0.127306
153, 0.304870, 0.123710
154, 0.303401, 0.120924
155, 0.303364, 0.117836
156, 0.303333, 0.113031
157, 0.302932, 0.108429
158, 0.302346, 0.104957
159, 0.302028, 0.100000
160, 0.300806, 0.095386
161, 0.300549, 0.091219
162, 0.299809, 0.086481
163, 0.298636, 0.084543
164, 0.297111, 0.081835
165, 0.295753, 0.078410
166, 0.294469, 0.075693
167, 0.293284, 0.074068
168, 0.292321, 0.073019
169, 0.291136, 0.071491
170, 0.290290, 0.073349
171, 0.289009, 0.074701
172, 0.288170, 0.076105
173, 0.287349, 0.077679
174, 0.286738, 0.079233
175, 0.286015, 0.080873
176, 0.285423, 0.082060
177, 0.284707, 0.082173
178, 0.283954, 0.079997
179, 0.282877, 0.079009
180, 0.282235, 0.075009
181, 0.281630, 0.071738
182, 0.281185, 0.069093
183, 0.281049, 0.065441
184, 0.280642, 0.062073
185, 0.280537, 0.059235
186, 0.280185, 0.056623
187, 0.280173, 0.054333
188, 0.279877, 0.053630
189, 0.279877, 0.052548
190, 0.279809, 0.051390
191, 0.279549, 0.049634
192, 0.279657, 0.047177
193, 0.279247, 0.045085
194, 0.278796, 0.043756
195, 0.279253, 0.043523
196, 0.280099, 0.043397
197, 0.281006, 0.043020
198, 0.282056, 0.042532
199, 0.282889, 0.042174
200, 0.283809, 0.042909
201, 0.284827, 0.043177
202, 0.285889, 0.043468
203, 0.286651, 0.042508
204, 0.287898, 0.040829
205, 0.288034, 0.037279
206, 0.287923, 0.034079
207, 0.287719, 0.031668
208, 0.287651, 0.029017
209, 0.287707, 0.026074
210, 0.288117, 0.022262
211, 0.288352, 0.019682
212, 0.288537, 0.017659
213, 0.288562, 0.017221
214, 0.288475, 0.016863
215, 0.288309, 0.016688
216, 0.288333, 0.016378
217, 0.288105, 0.015412
218, 0.287926, 0.015099
219, 0.287741, 0.015515
220, 0.285728, 0.016688
221, 0.283583, 0.017006
222, 0.281281, 0.017449
223, 0.279525, 0.017687
224, 0.277914, 0.018165
225, 0.276509, 0.019114
226, 0.275512, 0.020026
227, 0.274210, 0.020711
228, 0.273287, 0.020373
229, 0.271997, 0.020071
230, 0.272136, 0.019259
231, 0.272843, 0.018179
232, 0.273235, 0.017173
233, 0.274198, 0.016284
234, 0.274827, 0.015469
235, 0.275401, 0.014600
236, 0.275250, 0.014390
237, 0.276062, 0.014585
238, 0.276543, 0.015176
239, 0.276809, 0.015756
240, 0.277281, 0.015819
241, 0.277525, 0.016522
242, 0.278102, 0.017096
243, 0.277741, 0.017608
244, 0.277991, 0.017873
245, 0.278840, 0.018540
246, 0.280037, 0.018542
247, 0.280799, 0.018549
248, 0.281694, 0.019196
249, 0.282608, 0.018784
250, 0.283386, 0.018894
251, 0.284435, 0.019059
252, 0.285503, 0.018719
253, 0.286725, 0.017373
254, 0.287855, 0.016219
255, 0.288463, 0.014742
256, 0.289170, 0.013457
257, 0.289901, 0.012387
258, 0.290302, 0.010733
259, 0.290685, 0.009713
260, 0.291389, 0.008528
261, 0.291380, 0.006968
262, 0.291401, 0.005776
263, 0.291414, 0.005921
264, 0.291330, 0.006011
265, 0.291043, 0.005458
266, 0.290503, 0.005168
267, 0.289840, 0.004730
268, 0.289846, 0.004804
269, 0.290017, 0.004915
270, 0.287784, 0.005514
271, 0.285900, 0.005880
272, 0.283937, 0.006565
273, 0.282792, 0.006677
274, 0.281537, 0.006792
275, 0.280480, 0.007668
276, 0.279448, 0.009014
277, 0.278799, 0.010474
278, 0.278318, 0.011980
279, 0.277894, 0.013684
280, 0.279840, 0.014838
281, 0.281983, 0.016184
282, 0.284573, 0.018144
283, 0.286727, 0.020370
284, 0.288512, 0.023059
285, 0.290795, 0.025096
286, 0.293361, 0.026787
287, 0.295306, 0.028426
