Time of video, Queue Density, Dynamic Density
0.0666092, 0.0238827, 0
0.133218, 0.0394599, 0.00785185
0.199828, 0.0560278, 0.0145556
0.266437, 0.0728765, 0.0237222
0.333046, 0.0898333, 0.0344074
0.399655, 0.105895, 0.0455926
0.466264, 0.124019, 0.0582839
0.532873, 0.143019, 0.0723704
0.599483, 0.161525, 0.0855864
0.666092, 0.167552, 0.0975123
0.732701, 0.172299, 0.106747
0.79931, 0.176111, 0.115145
0.865919, 0.178593, 0.119522
0.932529, 0.180889, 0.123046
0.999138, 0.1835, 0.125546
1.06575, 0.186414, 0.125633
1.13236, 0.18708, 0.126176
1.19897, 0.188253, 0.124429
1.26557, 0.189938, 0.122824
1.33218, 0.191654, 0.123333
1.39879, 0.194074, 0.120389
1.4654, 0.195222, 0.119395
1.53201, 0.19708, 0.118519
1.59862, 0.199506, 0.115586
1.66523, 0.200938, 0.112525
1.73184, 0.202833, 0.110994
1.79845, 0.20466, 0.108272
1.86506, 0.205821, 0.108451
1.93167, 0.207815, 0.106185
1.99828, 0.209377, 0.105154
2.06488, 0.211358, 0.104259
2.13149, 0.21279, 0.103525
2.1981, 0.214019, 0.104031
2.26471, 0.216364, 0.104877
2.33132, 0.218759, 0.10687
2.39793, 0.220957, 0.108537
2.46454, 0.224475, 0.109339
2.53115, 0.227772, 0.109951
2.59776, 0.229988, 0.110414
2.66437, 0.232809, 0.111086
2.73098, 0.236006, 0.111932
2.79759, 0.23866, 0.110907
2.86419, 0.241269, 0.110161
2.9308, 0.243151, 0.110259
2.99741, 0.242565, 0.108858
3.06402, 0.243213, 0.107907
3.13063, 0.242818, 0.107716
3.19724, 0.241651, 0.106377
3.26385, 0.243127, 0.106006
3.33046, 0.243457, 0.105043
3.39707, 0.24433, 0.104765
3.46368, 0.244948, 0.105654
3.53029, 0.247157, 0.105216
3.5969, 0.250114, 0.104963
3.6635, 0.253873, 0.103895
3.73011, 0.258025, 0.104269
3.79672, 0.262077, 0.104762
3.86333, 0.265361, 0.105602
3.92994, 0.268904, 0.106491
3.99655, 0.272497, 0.10633
4.06316, 0.275114, 0.107806
4.12977, 0.278769, 0.110238
4.19638, 0.281577, 0.109836
4.26299, 0.282432, 0.111704
4.3296, 0.28246, 0.112481
4.39621, 0.282216, 0.112327
4.46282, 0.282179, 0.111599
4.52942, 0.282247, 0.111204
4.59603, 0.282111, 0.11137
4.66264, 0.283136, 0.110728
4.72925, 0.282512, 0.108315
4.79586, 0.282957, 0.107241
4.86247, 0.284, 0.105265
4.92908, 0.285222, 0.103358
4.99569, 0.286025, 0.101173
5.0623, 0.288339, 0.0983333
5.12891, 0.28984, 0.0965926
5.19552, 0.2915, 0.091642
5.26213, 0.293154, 0.0875062
5.32873, 0.295772, 0.0854753
5.39534, 0.298673, 0.0835
5.46195, 0.300883, 0.0812346
5.52856, 0.30487, 0.0810864
5.59517, 0.309636, 0.0812716
5.66178, 0.314204, 0.0843642
5.72839, 0.319636, 0.0882531
5.795, 0.325074, 0.0935432
5.86161, 0.330364, 0.0999506
5.92822, 0.336778, 0.106519
5.99483, 0.341512, 0.112296
6.06144, 0.346565, 0.119475
6.12804, 0.351167, 0.126938
6.19465, 0.355056, 0.133031
6.26126, 0.358784, 0.139062
6.32787, 0.357198, 0.145852
6.39448, 0.359701, 0.148858
6.46109, 0.360966, 0.153988
6.5277, 0.361256, 0.156963
6.59431, 0.361988, 0.160198
6.66092, 0.362355, 0.160938
6.72753, 0.361559, 0.160914
6.79414, 0.360306, 0.160463
6.86075, 0.361559, 0.156074
6.92735, 0.362407, 0.152179
6.99396, 0.363167, 0.148525
7.06057, 0.363762, 0.144019
7.12718, 0.36438, 0.141346
7.19379, 0.36617, 0.136719
7.2604, 0.36612, 0.136228
7.32701, 0.369275, 0.135568
7.39362, 0.372225, 0.135605
7.46023, 0.37354, 0.135716
7.52684, 0.37646, 0.138821
7.59345, 0.380451, 0.140056
7.66006, 0.383994, 0.14287
7.72666, 0.387673, 0.145836
7.79327, 0.390691, 0.148074
7.85988, 0.395056, 0.149716
7.92649, 0.397309, 0.151765
7.9931, 0.401333, 0.155735
8.05971, 0.403432, 0.160247
8.12632, 0.406889, 0.162012
8.19293, 0.40958, 0.164315
8.25954, 0.411716, 0.167123
8.32615, 0.413728, 0.169833
8.39276, 0.416969, 0.171991
8.45937, 0.419185, 0.17396
8.52598, 0.421772, 0.176222
8.59258, 0.423444, 0.175568
8.65919, 0.42496, 0.175333
8.7258, 0.42767, 0.177241
8.79241, 0.429367, 0.177278
8.85902, 0.431262, 0.177136
8.92563, 0.433219, 0.178651
8.99224, 0.433762, 0.17883
9.05885, 0.434947, 0.17771
9.12546, 0.434836, 0.178228
9.19207, 0.436491, 0.177019
9.25868, 0.437238, 0.176512
9.32529, 0.437306, 0.176377
9.39189, 0.43738, 0.174216
9.4585, 0.438071, 0.173944
9.52511, 0.436336, 0.171932
9.59172, 0.436435, 0.16879
9.65833, 0.433657, 0.16921
9.72494, 0.432111, 0.17008
9.79155, 0.428747, 0.168698
9.85816, 0.42658, 0.166518
9.92477, 0.424772, 0.165642
9.99138, 0.422994, 0.163765
10.058, 0.419809, 0.160846
10.1246, 0.417358, 0.16016
10.1912, 0.41487, 0.152586
10.2578, 0.41329, 0.147549
10.3244, 0.411772, 0.143191
10.391, 0.411253, 0.137753
10.4576, 0.409827, 0.133426
10.5243, 0.406944, 0.128864
10.5909, 0.404512, 0.12387
10.6575, 0.404068, 0.11863
10.7241, 0.402673, 0.114512
10.7907, 0.400346, 0.111463
10.8573, 0.399253, 0.108957
10.9239, 0.396407, 0.105685
10.9905, 0.394926, 0.102383
11.0571, 0.392772, 0.0991667
11.1237, 0.392259, 0.0962161
11.1903, 0.392123, 0.095358
11.257, 0.38929, 0.0930803
11.3236, 0.386537, 0.0982593
11.3902, 0.384309, 0.0988148
11.4568, 0.381975, 0.100074
11.5234, 0.381426, 0.102105
11.59, 0.379556, 0.101716
11.6566, 0.377494, 0.101383
11.7232, 0.37584, 0.103414
11.7898, 0.373272, 0.103198
11.8564, 0.372278, 0.0993086
11.923, 0.370617, 0.093966
11.9897, 0.369268, 0.0897994
12.0563, 0.367627, 0.0869784
12.1229, 0.367583, 0.0825031
12.1895, 0.365756, 0.0799167
12.2561, 0.364843, 0.0760401
12.3227, 0.364071, 0.074392
12.3893, 0.364127, 0.0720401
12.4559, 0.362194, 0.0701358
12.5225, 0.361938, 0.0706481
12.5891, 0.362278, 0.0692284
12.6557, 0.361327, 0.0658272
12.7224, 0.360148, 0.0657716
12.789, 0.360809, 0.0626049
12.8556, 0.359512, 0.0617778
12.9222, 0.357938, 0.0577593
12.9888, 0.35884, 0.0578272
13.0554, 0.360111, 0.057216
13.122, 0.36142, 0.0578333
13.1886, 0.362204, 0.0575494
13.2552, 0.363679, 0.0574815
13.3218, 0.36371, 0.0590741
13.3884, 0.364821, 0.0597839
13.4551, 0.365, 0.0594012
13.5217, 0.366525, 0.0556543
13.5883, 0.367562, 0.0518148
13.6549, 0.366747, 0.0471852
13.7215, 0.366346, 0.0433025
13.7881, 0.365772, 0.0390864
13.8547, 0.365111, 0.0365679
13.9213, 0.365364, 0.0312778
13.9879, 0.364938, 0.0268889
14.0545, 0.36642, 0.024321
14.1211, 0.367265, 0.0241605
14.1878, 0.367247, 0.0238704
14.2544, 0.367988, 0.0238519
14.321, 0.369086, 0.0244198
14.3876, 0.36958, 0.0241543
14.4542, 0.370852, 0.0230802
14.5208, 0.371772, 0.0229691
14.5874, 0.3725, 0.0228642
14.654, 0.371525, 0.0249537
14.7206, 0.370543, 0.0258117
14.7872, 0.369877, 0.0269352
14.8538, 0.369321, 0.0274228
14.9205, 0.369364, 0.0280401
14.9871, 0.369327, 0.0292747
15.0537, 0.368679, 0.0287068
15.1203, 0.368784, 0.0300401
15.1869, 0.367938, 0.0281605
15.2535, 0.368339, 0.0273704
15.3201, 0.368364, 0.0256543
15.3867, 0.369154, 0.0240432
15.4533, 0.369944, 0.0228025
15.5199, 0.37084, 0.0214815
15.5865, 0.37108, 0.0207531
15.6532, 0.371994, 0.0213395
15.7198, 0.371784, 0.0209938
15.7864, 0.37266, 0.0227346
15.853, 0.372685, 0.0231358
15.9196, 0.373994, 0.0236481
15.9862, 0.374074, 0.023142
16.0528, 0.374691, 0.0247469
16.1194, 0.373877, 0.0252469
16.186, 0.373901, 0.0260432
16.2526, 0.372994, 0.0266975
16.3192, 0.37425, 0.0283333
16.3859, 0.374676, 0.0282531
16.4525, 0.374133, 0.0288951
16.5191, 0.374299, 0.0293858
16.5857, 0.374194, 0.0285401
16.6523, 0.372988, 0.0275679
16.7189, 0.372654, 0.0262716
16.7855, 0.372142, 0.0262685
16.8521, 0.372265, 0.0221389
16.9187, 0.371083, 0.0201265
16.9853, 0.370997, 0.0170278
17.052, 0.372991, 0.0141512
17.1186, 0.373015, 0.0121728
17.1852, 0.373312, 0.010858
17.2518, 0.373481, 0.0102623
17.3184, 0.37487, 0.0095
17.385, 0.375645, 0.00811111
17.4516, 0.376475, 0.00728395
17.5182, 0.377654, 0.00638272
17.5848, 0.378407, 0.00706481
17.6514, 0.377056, 0.00669753
17.718, 0.376472, 0.00569753
17.7847, 0.375667, 0.00475617
17.8513, 0.37616, 0.00431173
17.9179, 0.374938, 0.00362037
17.9845, 0.372802, 0.00478086
18.0511, 0.370617, 0.0052963
18.1177, 0.369481, 0.00627469
18.1843, 0.367611, 0.00658951
18.2509, 0.366827, 0.00675926
18.3175, 0.36763, 0.00812963
18.3841, 0.367049, 0.0102716
18.4507, 0.367716, 0.0132716
18.5174, 0.367796, 0.0158333
18.584, 0.368932, 0.0170278
18.6506, 0.37079, 0.0185926
18.7172, 0.373549, 0.0210802
18.7838, 0.375481, 0.0233951
18.8504, 0.377741, 0.0257222
18.917, 0.379037, 0.0292469
18.9836, 0.381772, 0.0310926
19.0502, 0.38421, 0.0333889
19.1168, 0.385623, 0.0347716
19.1834, 0.387179, 0.0363951
19.2501, 0.389494, 0.0372654
19.3167, 0.390519, 0.0386728
19.3833, 0.391105, 0.039321
19.4499, 0.392012, 0.0410247
19.5165, 0.392444, 0.0422222
19.5831, 0.391383, 0.0420494
19.6497, 0.38816, 0.0449074
19.7163, 0.38687, 0.044821
19.7829, 0.384284, 0.0463982
19.8495, 0.382006, 0.0492191
19.9161, 0.379494, 0.0504352
19.9828, 0.37763, 0.051571
20.0494, 0.375463, 0.0521636
20.116, 0.373068, 0.0515216
20.1826, 0.370944, 0.0497377
20.2492, 0.369815, 0.047892
20.3158, 0.368506, 0.0453951
20.3824, 0.368068, 0.0433148
20.449, 0.367148, 0.0409506
20.5156, 0.366698, 0.0394938
20.5822, 0.365802, 0.0369321
20.6488, 0.364198, 0.0350123
20.7155, 0.36408, 0.032821
20.7821, 0.364494, 0.0325617
20.8487, 0.364938, 0.0326482
20.9153, 0.365722, 0.0338827
20.9819, 0.36616, 0.0339136
21.0485, 0.366012, 0.034179
21.1151, 0.364494, 0.0337654
21.1817, 0.363735, 0.0327839
21.2483, 0.36434, 0.0330247
21.3149, 0.363321, 0.0364506
21.3815, 0.363451, 0.0376605
21.4482, 0.36287, 0.037784
21.5148, 0.361475, 0.0399136
21.5814, 0.360549, 0.0408333
21.648, 0.360636, 0.041
21.7146, 0.36008, 0.0410062
21.7812, 0.360216, 0.0424506
21.8478, 0.359827, 0.0399383
21.9144, 0.360784, 0.0366852
21.981, 0.359883, 0.0336605
22.0476, 0.360148, 0.0309321
22.1142, 0.359827, 0.0283025
22.1809, 0.360364, 0.0247531
22.2475, 0.360472, 0.0214259
22.3141, 0.360367, 0.0199815
22.3807, 0.360978, 0.0175062
22.4473, 0.361268, 0.0155988
22.5139, 0.361034, 0.0144938
22.5805, 0.361355, 0.0147222
22.6471, 0.362059, 0.0154198
22.7137, 0.363361, 0.0153889
22.7803, 0.363981, 0.0168519
22.8469, 0.363679, 0.0189568
22.9136, 0.365426, 0.0195926
22.9802, 0.365988, 0.0227346
23.0468, 0.366358, 0.0262593
23.1134, 0.368179, 0.0282037
23.18, 0.370525, 0.0297346
23.2466, 0.372111, 0.0329938
23.3132, 0.372426, 0.0347593
23.3798, 0.373827, 0.0363148
23.4464, 0.374994, 0.0379444
23.513, 0.37629, 0.0398395
23.5796, 0.376068, 0.0394321
23.6463, 0.378531, 0.0385
23.7129, 0.381333, 0.0388827
23.7795, 0.382253, 0.0404198
23.8461, 0.382623, 0.0400802
23.9127, 0.383802, 0.0390185
23.9793, 0.384778, 0.0379259
24.0459, 0.386432, 0.0375802
24.1125, 0.387469, 0.0359198
24.1791, 0.389228, 0.0347469
24.2457, 0.390438, 0.0338272
24.3124, 0.389926, 0.0332407
24.379, 0.390339, 0.0317963
24.4456, 0.391247, 0.0315
24.5122, 0.392451, 0.0308951
24.5788, 0.392568, 0.0307037
24.6454, 0.390093, 0.0305309
24.712, 0.389914, 0.0318395
24.7786, 0.389519, 0.0324691
24.8452, 0.387926, 0.0331481
24.9118, 0.386636, 0.0337469
24.9784, 0.38608, 0.0340802
25.0451, 0.384846, 0.035
25.1117, 0.382309, 0.0354506
25.1783, 0.380981, 0.0350432
25.2449, 0.380086, 0.0340309
25.3115, 0.379846, 0.0328333
25.3781, 0.379062, 0.0316605
25.4447, 0.378877, 0.0328889
25.5113, 0.379228, 0.033142
25.5779, 0.380197, 0.0343086
25.6445, 0.380784, 0.0341358
25.7111, 0.383068, 0.0346543
25.7778, 0.384889, 0.0357407
25.8444, 0.386883, 0.0380926
25.911, 0.389414, 0.0418796
25.9776, 0.391556, 0.0441451
26.0442, 0.393568, 0.0462623
26.1108, 0.395642, 0.0485772
26.1774, 0.396957, 0.0520586
26.244, 0.397796, 0.055608
26.3106, 0.399901, 0.0599938
26.3772, 0.401759, 0.0635154
26.4438, 0.402367, 0.0675123
26.5105, 0.404201, 0.0704321
26.5771, 0.406497, 0.0736019
26.6437, 0.407747, 0.076108
26.7103, 0.408414, 0.0782377
26.7769, 0.410648, 0.0791759
26.8435, 0.413568, 0.0786728
26.9101, 0.415364, 0.079787
26.9767, 0.417225, 0.0802253
27.0433, 0.420756, 0.0807068
27.1099, 0.42446, 0.0827346
27.1765, 0.428204, 0.0843642
27.2432, 0.432296, 0.0859506
27.3098, 0.436722, 0.0898951
27.3764, 0.442093, 0.0936296
27.443, 0.447457, 0.0995494
27.5096, 0.453481, 0.104833
27.5762, 0.458957, 0.109679
27.6428, 0.46466, 0.114951
27.7094, 0.469296, 0.12029
27.776, 0.473664, 0.12417
27.8426, 0.479238, 0.130664
27.9092, 0.483293, 0.134312
27.9759, 0.487645, 0.142676
28.0425, 0.492262, 0.147586
28.1091, 0.495602, 0.153926
28.1757, 0.499836, 0.158821
28.2423, 0.504855, 0.164179
28.3089, 0.511093, 0.169824
28.3755, 0.515469, 0.173188
28.4421, 0.521278, 0.177231
28.5087, 0.52563, 0.18017
28.5753, 0.531821, 0.179358
28.6419, 0.537346, 0.179617
28.7086, 0.54271, 0.179179
28.7752, 0.548475, 0.17808
28.8418, 0.552222, 0.178006
28.9084, 0.557278, 0.177062
28.975, 0.560802, 0.177352
29.0416, 0.563593, 0.177117
29.1082, 0.568117, 0.177969
29.1748, 0.570648, 0.178846
29.2414, 0.572019, 0.180901
29.308, 0.573698, 0.182123
29.3746, 0.575383, 0.184494
29.4413, 0.577512, 0.185772
29.5079, 0.578463, 0.189617
29.5745, 0.579988, 0.191586
29.6411, 0.574494, 0.196315
29.7077, 0.571019, 0.199012
29.7743, 0.569593, 0.197981
29.8409, 0.567778, 0.198049
29.9075, 0.567062, 0.198222
29.9741, 0.566741, 0.197284
30.0407, 0.565457, 0.197648
30.1073, 0.565231, 0.197698
30.174, 0.562985, 0.195827
30.2406, 0.566003, 0.192556
30.3072, 0.56833, 0.190568
30.3738, 0.569886, 0.189907
30.4404, 0.572269, 0.189333
30.507, 0.574127, 0.188944
30.5736, 0.57454, 0.190099
30.6402, 0.575383, 0.18942
30.7068, 0.576018, 0.189364
30.7734, 0.577068, 0.188673
30.8401, 0.578049, 0.187833
30.9067, 0.57866, 0.187302
30.9733, 0.578735, 0.186296
31.0399, 0.578963, 0.184654
31.1065, 0.579339, 0.182821
31.1731, 0.579858, 0.180889
31.2397, 0.579926, 0.178698
31.3063, 0.58029, 0.181895
31.3729, 0.580747, 0.181148
31.4395, 0.581617, 0.181815
31.5061, 0.581543, 0.182531
31.5728, 0.582833, 0.183796
31.6394, 0.584077, 0.182969
31.706, 0.584713, 0.184111
31.7726, 0.585534, 0.182775
31.8392, 0.586114, 0.180046
31.9058, 0.58712, 0.175182
31.9724, 0.587484, 0.170855
32.039, 0.588108, 0.166312
32.1056, 0.58963, 0.16225
32.1722, 0.58983, 0.155657
32.2388, 0.590318, 0.151762
32.3055, 0.590194, 0.148025
32.3721, 0.590225, 0.143475
32.4387, 0.589824, 0.142284
32.5053, 0.589645, 0.140469
32.5719, 0.59059, 0.133957
32.6385, 0.589926, 0.130364
32.7051, 0.590164, 0.127679
32.7717, 0.589645, 0.124438
32.8383, 0.58959, 0.12129
32.9049, 0.589772, 0.116537
32.9715, 0.590898, 0.120003
33.0382, 0.592664, 0.118605
33.1048, 0.594512, 0.120022
33.1714, 0.595778, 0.121583
33.238, 0.598935, 0.123478
33.3046, 0.602065, 0.127503
33.3712, 0.606, 0.129799
33.4378, 0.60983, 0.13225
33.5044, 0.614839, 0.126173
33.571, 0.618321, 0.121423
33.6376, 0.621775, 0.115784
33.7042, 0.627151, 0.111759
33.7709, 0.631485, 0.105951
33.8375, 0.63541, 0.0996975
33.9041, 0.639253, 0.090858
33.9707, 0.642772, 0.083463
34.0373, 0.646197, 0.0777963
34.1039, 0.649389, 0.0772161
34.1705, 0.652556, 0.0761728
34.2371, 0.655315, 0.0766049
34.3037, 0.657778, 0.0762654
34.3703, 0.658512, 0.0763333
34.4369, 0.659661, 0.0780062
34.5036, 0.660932, 0.0810741
34.5702, 0.662142, 0.0830494
34.6368, 0.663142, 0.0900988
34.7034, 0.66292, 0.0942963
34.77, 0.664673, 0.0959877
34.8366, 0.665642, 0.0985494
34.9032, 0.666747, 0.099858
34.9698, 0.667136, 0.101747
35.0364, 0.668543, 0.104241
35.103, 0.669512, 0.105991
35.1696, 0.670568, 0.105481
35.2363, 0.669759, 0.103485
35.3029, 0.671481, 0.102343
35.3695, 0.670753, 0.100608
35.4361, 0.671401, 0.101725
35.5027, 0.671883, 0.102762
35.5693, 0.671778, 0.103157
35.6359, 0.672457, 0.103815
35.7025, 0.672636, 0.103738
35.7691, 0.672889, 0.105265
35.8357, 0.674475, 0.107006
35.9023, 0.67463, 0.108846
35.969, 0.675222, 0.11042
36.0356, 0.674673, 0.111932
36.1022, 0.674747, 0.111932
36.1688, 0.674395, 0.113485
36.2354, 0.674296, 0.113343
36.302, 0.671111, 0.121713
36.3686, 0.670142, 0.125694
36.4352, 0.667518, 0.129306
36.5018, 0.66492, 0.133614
36.5684, 0.663469, 0.136157
36.635, 0.660586, 0.13867
36.7017, 0.657907, 0.143475
36.7683, 0.655951, 0.145241
36.8349, 0.655426, 0.138895
36.9015, 0.65462, 0.134398
36.9681, 0.653565, 0.127954
37.0347, 0.652117, 0.122904
37.1013, 0.652259, 0.116688
37.1679, 0.652043, 0.110929
37.2345, 0.6515, 0.104559
37.3011, 0.652327, 0.0975278
37.3678, 0.651327, 0.092108
37.4344, 0.649404, 0.0930802
37.501, 0.64896, 0.0947222
37.5676, 0.648512, 0.0953642
37.6342, 0.647938, 0.0987963
37.7008, 0.647142, 0.105043
37.7674, 0.646509, 0.10913
37.834, 0.646213, 0.114688
37.9006, 0.646812, 0.123114
37.9672, 0.647515, 0.14225
38.0338, 0.649639, 0.154929
38.1005, 0.651497, 0.166904
38.1671, 0.653096, 0.177725
38.2337, 0.654929, 0.186139
38.3003, 0.657969, 0.193262
38.3669, 0.660142, 0.199034
38.4335, 0.66321, 0.198515
38.5001, 0.665744, 0.184003
38.5667, 0.667917, 0.170194
38.6333, 0.669454, 0.151966
38.6999, 0.672022, 0.134941
38.7665, 0.673102, 0.118454
38.8332, 0.676466, 0.102731
38.8998, 0.676787, 0.0878827
38.9664, 0.679336, 0.0731975
39.033, 0.680432, 0.0614136
39.0996, 0.681741, 0.0593025
39.1662, 0.682951, 0.0571605
39.2328, 0.683204, 0.057463
39.2994, 0.683963, 0.0584877
39.366, 0.685889, 0.0581173
39.4326, 0.685395, 0.0587222
39.4992, 0.689117, 0.0605864
39.5659, 0.69, 0.0615
39.6325, 0.687222, 0.0675309
39.6991, 0.686642, 0.0692407
39.7657, 0.686463, 0.0716235
39.8323, 0.687549, 0.0748025
39.8989, 0.690179, 0.076358
39.9655, 0.690593, 0.079142
40.0321, 0.692543, 0.0826296
40.0987, 0.693778, 0.0856049
40.1653, 0.695605, 0.0862407
40.2319, 0.698253, 0.0849444
40.2986, 0.701093, 0.0854568
40.3652, 0.704216, 0.0838025
40.4318, 0.707519, 0.0830556
40.4984, 0.711599, 0.0834753
40.565, 0.713858, 0.0822531
40.6316, 0.718975, 0.0817037
40.6982, 0.722679, 0.0821759
40.7648, 0.725691, 0.0824228
40.8314, 0.728809, 0.0844043
40.898, 0.73216, 0.085929
40.9646, 0.735759, 0.0878179
41.0313, 0.738549, 0.0893302
41.0979, 0.742056, 0.0915216
41.1645, 0.744463, 0.0937747
41.2311, 0.745926, 0.0955988
41.2977, 0.748074, 0.0979259
41.3643, 0.74934, 0.0995679
41.4309, 0.749938, 0.101574
41.4975, 0.75187, 0.103957
41.5641, 0.752765, 0.105698
41.6307, 0.75429, 0.107599
41.6973, 0.754543, 0.109568
41.764, 0.756346, 0.111611
41.8306, 0.757173, 0.110981
41.8972, 0.756296, 0.110512
41.9638, 0.757253, 0.10963
42.0304, 0.759741, 0.107315
42.097, 0.760981, 0.106494
42.1636, 0.76292, 0.103827
42.2302, 0.764506, 0.102111
42.2968, 0.765858, 0.10129
42.3634, 0.767241, 0.0968858
42.43, 0.769241, 0.0947006
42.4967, 0.770457, 0.0934661
42.5633, 0.77137, 0.0919105
42.6299, 0.772265, 0.0911636
42.6965, 0.772299, 0.0901142
42.7631, 0.771673, 0.0882068
42.8297, 0.77213, 0.0853364
42.8963, 0.772074, 0.0837469
42.9629, 0.773753, 0.0888457
43.0295, 0.773469, 0.0900864
43.0961, 0.774784, 0.0932346
43.1627, 0.77521, 0.0934383
43.2294, 0.776392, 0.0949136
43.296, 0.777154, 0.0967963
43.3626, 0.777886, 0.0970741
43.4292, 0.778531, 0.0979568
43.4958, 0.778599, 0.0954506
43.5624, 0.779574, 0.0914691
43.629, 0.780296, 0.0893179
43.6956, 0.780302, 0.0855247
43.7622, 0.780352, 0.0823642
43.8288, 0.78288, 0.0790247
43.8954, 0.783148, 0.0762346
43.9621, 0.785806, 0.0740926
44.0287, 0.787148, 0.0723951
44.0953, 0.789006, 0.0731049
44.1619, 0.791475, 0.0737191
44.2285, 0.792247, 0.0737099
44.2951, 0.79329, 0.0732469
44.3617, 0.795343, 0.0743827
44.4283, 0.795324, 0.0748765
44.4949, 0.79588, 0.0757531
44.5615, 0.795667, 0.0774259
44.6282, 0.79116, 0.0813827
44.6948, 0.788519, 0.0847716
44.7614, 0.785815, 0.0879105
44.828, 0.784309, 0.0895339
44.8946, 0.782123, 0.0931883
44.9612, 0.779907, 0.0969599
45.0278, 0.778488, 0.0983364
45.0944, 0.778185, 0.103688
45.161, 0.777037, 0.100719
45.2276, 0.778716, 0.0984969
45.2942, 0.780333, 0.0976975
45.3609, 0.781821, 0.0954136
45.4275, 0.784265, 0.0931728
45.4941, 0.785463, 0.0920247
45.5607, 0.787802, 0.0883272
45.6273, 0.789969, 0.0853086
45.6939, 0.7905, 0.0831049
45.7605, 0.790784, 0.0827284
45.8271, 0.792099, 0.0818025
45.8937, 0.793438, 0.0812099
45.9603, 0.794059, 0.0800556
46.0269, 0.794312, 0.0790062
46.0936, 0.795247, 0.0787778
46.1602, 0.79558, 0.0774753
46.2268, 0.796065, 0.0768642
46.2934, 0.791978, 0.0805185
46.36, 0.790929, 0.080321
46.4266, 0.789837, 0.0827778
46.4932, 0.788815, 0.0837963
46.5598, 0.787056, 0.0841235
46.6264, 0.786627, 0.0847963
46.693, 0.785553, 0.0852315
46.7596, 0.784698, 0.0867994
46.8263, 0.78283, 0.0840586
46.8929, 0.784117, 0.0804877
46.9595, 0.785352, 0.0772407
47.0261, 0.787228, 0.0746358
