Time of video, Queue Density, Dynamic Density
0.0666092, 0.0262469, 0
0.133218, 0.0466173, 0.00998765
0.199828, 0.0625864, 0.0177346
0.266437, 0.0820432, 0.0283272
0.333046, 0.0995803, 0.0417593
0.399655, 0.118821, 0.0538765
0.466264, 0.137019, 0.0673272
0.532873, 0.156457, 0.0832284
0.599483, 0.177679, 0.097821
0.666092, 0.18329, 0.111451
0.732701, 0.186222, 0.12284
0.79931, 0.186512, 0.131691
0.865919, 0.190253, 0.135914
0.932529, 0.192031, 0.140099
0.999138, 0.192605, 0.143321
1.06575, 0.195043, 0.14279
1.13236, 0.195735, 0.145049
1.19897, 0.198062, 0.141759
1.26557, 0.199648, 0.140309
1.33218, 0.199895, 0.139716
1.39879, 0.202809, 0.134605
1.4654, 0.206093, 0.132765
1.53201, 0.21029, 0.131716
1.59862, 0.214136, 0.12684
1.66523, 0.21721, 0.124883
1.73184, 0.221068, 0.122049
1.79845, 0.223778, 0.119204
1.86506, 0.224401, 0.118944
1.93167, 0.229673, 0.116685
1.99828, 0.231148, 0.115944
2.06488, 0.233821, 0.116389
2.13149, 0.23363, 0.11463
2.1981, 0.235488, 0.114827
2.26471, 0.237012, 0.116778
2.33132, 0.23758, 0.118407
2.39793, 0.237796, 0.119019
2.46454, 0.239562, 0.121
2.53115, 0.241994, 0.12171
2.59776, 0.244401, 0.122154
2.66437, 0.245556, 0.123272
2.73098, 0.248235, 0.125253
2.79759, 0.248574, 0.125216
2.86419, 0.247858, 0.125574
2.9308, 0.249358, 0.123111
2.99741, 0.248679, 0.123167
3.06402, 0.249198, 0.121735
3.13063, 0.246759, 0.12437
3.19724, 0.245475, 0.121358
3.26385, 0.246457, 0.122056
3.33046, 0.247179, 0.121364
3.39707, 0.247222, 0.11979
3.46368, 0.251364, 0.119241
3.53029, 0.253191, 0.119648
3.5969, 0.257302, 0.119241
3.6635, 0.261185, 0.118611
3.73011, 0.264204, 0.116012
3.79672, 0.268586, 0.117994
3.86333, 0.27121, 0.118784
3.92994, 0.274179, 0.119679
3.99655, 0.27642, 0.120735
4.06316, 0.279216, 0.121648
4.12977, 0.282685, 0.124093
4.19638, 0.284691, 0.124846
4.26299, 0.284111, 0.127167
4.3296, 0.287037, 0.127605
4.39621, 0.288204, 0.128037
4.46282, 0.288772, 0.126389
4.52942, 0.289549, 0.125877
4.59603, 0.289969, 0.125981
4.66264, 0.288481, 0.125117
4.72925, 0.284969, 0.123901
4.79586, 0.283377, 0.12166
4.86247, 0.286611, 0.119617
4.92908, 0.287685, 0.118494
4.99569, 0.287679, 0.115426
5.0623, 0.28879, 0.113432
5.12891, 0.288938, 0.110877
5.19552, 0.292037, 0.105617
5.26213, 0.295864, 0.10008
5.32873, 0.300235, 0.0971543
5.39534, 0.305642, 0.0952654
5.46195, 0.307099, 0.0922963
5.52856, 0.311833, 0.0918457
5.59517, 0.314778, 0.0918951
5.66178, 0.32121, 0.0952839
5.72839, 0.327907, 0.0994383
5.795, 0.332593, 0.103969
5.86161, 0.337765, 0.111772
5.92822, 0.342778, 0.117679
5.99483, 0.347975, 0.123389
6.06144, 0.353105, 0.132
6.12804, 0.360284, 0.13979
6.19465, 0.365975, 0.145877
6.26126, 0.367679, 0.151272
6.32787, 0.368833, 0.15879
6.39448, 0.372272, 0.162802
6.46109, 0.374062, 0.166426
6.5277, 0.375327, 0.171772
6.59431, 0.376395, 0.174932
6.66092, 0.379426, 0.174623
6.72753, 0.377247, 0.176352
6.79414, 0.377, 0.174296
6.86075, 0.376179, 0.171506
6.92735, 0.377679, 0.167654
6.99396, 0.376704, 0.163432
7.06057, 0.377981, 0.161019
7.12718, 0.380154, 0.15792
7.19379, 0.381667, 0.154648
7.2604, 0.381228, 0.153778
7.32701, 0.384772, 0.153914
7.39362, 0.39, 0.155284
7.46023, 0.395296, 0.154519
7.52684, 0.39963, 0.158247
7.59345, 0.404407, 0.161012
7.66006, 0.409728, 0.161951
7.72666, 0.411296, 0.163883
7.79327, 0.414593, 0.166272
7.85988, 0.41884, 0.168272
7.92649, 0.421525, 0.169062
7.9931, 0.41684, 0.173302
8.05971, 0.413846, 0.177056
8.12632, 0.413364, 0.176481
8.19293, 0.412895, 0.180401
8.25954, 0.411821, 0.181148
8.32615, 0.412056, 0.183494
8.39276, 0.411018, 0.186031
8.45937, 0.40971, 0.187031
8.52598, 0.409296, 0.189926
8.59258, 0.411895, 0.189938
8.65919, 0.41637, 0.189778
8.7258, 0.419494, 0.1935
8.79241, 0.421383, 0.194302
8.85902, 0.421049, 0.195191
8.92563, 0.423377, 0.197802
8.99224, 0.424753, 0.197556
9.05885, 0.425889, 0.197543
9.12546, 0.426049, 0.196161
9.19207, 0.42692, 0.19737
9.25868, 0.426426, 0.196728
9.32529, 0.425488, 0.193852
9.39189, 0.424772, 0.193352
9.4585, 0.423383, 0.191858
9.52511, 0.419512, 0.190463
9.59172, 0.417549, 0.186537
9.65833, 0.420525, 0.188296
9.72494, 0.418302, 0.191049
9.79155, 0.419611, 0.189753
9.85816, 0.419259, 0.186667
9.92477, 0.41663, 0.187364
9.99138, 0.417, 0.185981
10.058, 0.417327, 0.184722
10.1246, 0.416957, 0.184414
10.1912, 0.418642, 0.175802
10.2578, 0.417605, 0.170284
10.3244, 0.417667, 0.166451
10.391, 0.416815, 0.160167
10.4576, 0.415259, 0.155735
10.5243, 0.414556, 0.150759
10.5909, 0.413926, 0.144605
10.6575, 0.413691, 0.137852
10.7241, 0.41187, 0.130772
10.7907, 0.410389, 0.126735
10.8573, 0.409043, 0.124889
10.9239, 0.407154, 0.120889
10.9905, 0.40566, 0.116136
11.0571, 0.405747, 0.112309
11.1237, 0.405056, 0.110451
11.1903, 0.404068, 0.108981
11.257, 0.401228, 0.106531
11.3236, 0.397957, 0.114346
11.3902, 0.396025, 0.116883
11.4568, 0.392975, 0.118191
11.5234, 0.390691, 0.118994
11.59, 0.388358, 0.121846
11.6566, 0.384963, 0.122562
11.7232, 0.381309, 0.123364
11.7898, 0.377333, 0.122772
11.8564, 0.375728, 0.118451
11.923, 0.373463, 0.111642
11.9897, 0.372086, 0.107105
12.0563, 0.371198, 0.103957
12.1229, 0.369988, 0.100747
12.1895, 0.36937, 0.0972037
12.2561, 0.367864, 0.0932654
12.3227, 0.367568, 0.091179
12.3893, 0.365864, 0.0889568
12.4559, 0.364673, 0.0859444
12.5225, 0.364025, 0.0859259
12.5891, 0.362173, 0.0849259
12.6557, 0.360809, 0.0823457
12.7224, 0.360562, 0.079
12.789, 0.359673, 0.0760864
12.8556, 0.358981, 0.0723086
12.9222, 0.356333, 0.0688086
12.9888, 0.359907, 0.0705494
13.0554, 0.361025, 0.0703333
13.122, 0.362593, 0.0696543
13.1886, 0.36408, 0.0699259
13.2552, 0.366611, 0.0670123
13.3218, 0.367469, 0.068142
13.3884, 0.367938, 0.0679753
13.4551, 0.369519, 0.0685864
13.5217, 0.371679, 0.0633148
13.5883, 0.37163, 0.0576543
13.6549, 0.370284, 0.0530123
13.7215, 0.370698, 0.0494568
13.7881, 0.371142, 0.0451852
13.8547, 0.370617, 0.0425617
13.9213, 0.370525, 0.0392099
13.9879, 0.370716, 0.0355988
14.0545, 0.371593, 0.032142
14.1211, 0.373037, 0.0304691
14.1878, 0.372105, 0.0301358
14.2544, 0.373519, 0.0308395
14.321, 0.374167, 0.0306914
14.3876, 0.37416, 0.0305802
14.4542, 0.373167, 0.0292346
14.5208, 0.37392, 0.0282284
14.5874, 0.374315, 0.0287531
14.654, 0.372056, 0.0312531
14.7206, 0.36863, 0.0344938
14.7872, 0.369494, 0.0369012
14.8538, 0.367698, 0.0377901
14.9205, 0.367056, 0.0377222
14.9871, 0.366556, 0.037537
15.0537, 0.368019, 0.0373951
15.1203, 0.366661, 0.0389136
15.1869, 0.365685, 0.0353827
15.2535, 0.3655, 0.0337716
15.3201, 0.36787, 0.0311173
15.3867, 0.36671, 0.0287099
15.4533, 0.367827, 0.0269259
15.5199, 0.368691, 0.0272593
15.5865, 0.369117, 0.0263642
15.6532, 0.369099, 0.0271173
15.7198, 0.369321, 0.026537
15.7864, 0.369531, 0.0291111
15.853, 0.369037, 0.0297531
15.9196, 0.369198, 0.0312716
15.9862, 0.368543, 0.031284
16.0528, 0.36929, 0.0312901
16.1194, 0.369148, 0.0325247
16.186, 0.368833, 0.0312099
16.2526, 0.369549, 0.0322531
16.3192, 0.36942, 0.0323457
16.3859, 0.371864, 0.0319444
16.4525, 0.373549, 0.0308395
16.5191, 0.374302, 0.0324568
16.5857, 0.37363, 0.0298457
16.6523, 0.374914, 0.0314753
16.7189, 0.375846, 0.0288889
16.7855, 0.375778, 0.0296852
16.8521, 0.377988, 0.0249815
16.9187, 0.378272, 0.0240432
16.9853, 0.378278, 0.021358
17.052, 0.378568, 0.018216
17.1186, 0.379772, 0.0174506
17.1852, 0.380432, 0.0168333
17.2518, 0.382111, 0.0150988
17.3184, 0.383741, 0.0141481
17.385, 0.384006, 0.0128086
17.4516, 0.385352, 0.0128765
17.5182, 0.38608, 0.0126173
17.5848, 0.384444, 0.012858
17.6514, 0.383506, 0.0134259
17.718, 0.382512, 0.0122901
17.7847, 0.382833, 0.0103272
17.8513, 0.382636, 0.0107716
17.9179, 0.381123, 0.0104259
17.9845, 0.378043, 0.0118704
18.0511, 0.37542, 0.0104012
18.1177, 0.371716, 0.0110988
18.1843, 0.371907, 0.0134012
18.2509, 0.370494, 0.0147222
18.3175, 0.371907, 0.0130556
18.3841, 0.370969, 0.0179259
18.4507, 0.371469, 0.0216975
18.5174, 0.372315, 0.0236173
18.584, 0.373389, 0.0261975
18.6506, 0.375228, 0.028537
18.7172, 0.379136, 0.0310185
18.7838, 0.381944, 0.032321
18.8504, 0.385099, 0.0344321
18.917, 0.386228, 0.0390864
18.9836, 0.389537, 0.0408951
19.0502, 0.390963, 0.0422963
19.1168, 0.394086, 0.0442469
19.1834, 0.396383, 0.0440062
19.2501, 0.399062, 0.0436173
19.3167, 0.398747, 0.0453889
19.3833, 0.399636, 0.0472099
19.4499, 0.399926, 0.0485
19.5165, 0.397407, 0.0476914
19.5831, 0.395698, 0.049321
19.6497, 0.393975, 0.0498025
19.7163, 0.391802, 0.051321
19.7829, 0.388253, 0.0528025
19.8495, 0.387204, 0.0550062
19.9161, 0.384204, 0.0577778
19.9828, 0.382963, 0.0586667
20.0494, 0.380432, 0.0576296
20.116, 0.379525, 0.0585123
20.1826, 0.379198, 0.0571914
20.2492, 0.377093, 0.0553086
20.3158, 0.375031, 0.0534938
20.3824, 0.372426, 0.0505
20.449, 0.371747, 0.0487839
20.5156, 0.369377, 0.0457469
20.5822, 0.36587, 0.0445247
20.6488, 0.363506, 0.0421049
20.7155, 0.363661, 0.0419321
20.7821, 0.362963, 0.0415309
20.8487, 0.360698, 0.0422222
20.9153, 0.360025, 0.0410432
20.9819, 0.361747, 0.0419136
21.0485, 0.359315, 0.0426173
21.1151, 0.359975, 0.0444568
21.1817, 0.35942, 0.0432037
21.2483, 0.360358, 0.0432531
21.3149, 0.35837, 0.0465926
21.3815, 0.356716, 0.0481605
21.4482, 0.357537, 0.0479691
21.5148, 0.357241, 0.0504321
21.5814, 0.355994, 0.0513827
21.648, 0.355926, 0.0515926
21.7146, 0.355519, 0.0510432
21.7812, 0.357043, 0.052037
21.8478, 0.356327, 0.0472346
21.9144, 0.357722, 0.043963
21.981, 0.358358, 0.0396667
22.0476, 0.356741, 0.0372839
22.1142, 0.357716, 0.0332716
22.1809, 0.357994, 0.0302593
22.2475, 0.357414, 0.0282901
22.3141, 0.358623, 0.0248333
22.3807, 0.357086, 0.0209815
22.4473, 0.359333, 0.0220432
22.5139, 0.358747, 0.0219815
22.5805, 0.36021, 0.0223519
22.6471, 0.36266, 0.0214753
22.7137, 0.364241, 0.0230123
22.7803, 0.366019, 0.0241852
22.8469, 0.36692, 0.0253519
22.9136, 0.370302, 0.0261296
22.9802, 0.372932, 0.029821
23.0468, 0.374574, 0.030858
23.1134, 0.377679, 0.0332901
23.18, 0.378772, 0.0354568
23.2466, 0.381228, 0.0380062
23.3132, 0.383056, 0.0402284
23.3798, 0.384222, 0.0429444
23.4464, 0.385796, 0.0461296
23.513, 0.385994, 0.0472716
23.5796, 0.386475, 0.0474198
23.6463, 0.386901, 0.0469444
23.7129, 0.388685, 0.0463704
23.7795, 0.389802, 0.0480062
23.8461, 0.389944, 0.048784
23.9127, 0.391698, 0.0473272
23.9793, 0.39129, 0.0471852
24.0459, 0.393568, 0.0449506
24.1125, 0.395068, 0.0425864
24.1791, 0.395216, 0.0429074
24.2457, 0.396259, 0.0425185
24.3124, 0.396037, 0.0409198
24.379, 0.398006, 0.0408272
24.4456, 0.399679, 0.0394815
24.5122, 0.400136, 0.039463
24.5788, 0.39992, 0.0385062
24.6454, 0.395444, 0.038037
24.712, 0.393691, 0.0390123
24.7786, 0.390543, 0.0389012
24.8452, 0.389481, 0.0393086
24.9118, 0.386259, 0.0418827
24.9784, 0.380216, 0.043142
25.0451, 0.376377, 0.0451049
25.1117, 0.374309, 0.0461173
25.1783, 0.370346, 0.0448642
25.2449, 0.369019, 0.0447222
25.3115, 0.367784, 0.0426173
25.3781, 0.366691, 0.0434383
25.4447, 0.365858, 0.0435741
25.5113, 0.365753, 0.0442593
25.5779, 0.368858, 0.0440617
25.6445, 0.371469, 0.0436296
25.7111, 0.374198, 0.0426914
25.7778, 0.376741, 0.0447901
25.8444, 0.380142, 0.0470864
25.911, 0.384247, 0.0500617
25.9776, 0.38687, 0.0521543
26.0442, 0.392204, 0.0551235
26.1108, 0.396142, 0.0581543
26.1774, 0.398216, 0.0611667
26.244, 0.40137, 0.0632284
26.3106, 0.40363, 0.0675
26.3772, 0.406543, 0.0711173
26.4438, 0.406963, 0.0748272
26.5105, 0.408284, 0.0774383
26.5771, 0.412407, 0.0812778
26.6437, 0.413463, 0.0844198
26.7103, 0.41313, 0.0854815
26.7769, 0.415142, 0.0869815
26.8435, 0.417809, 0.0881296
26.9101, 0.419728, 0.0894383
26.9767, 0.421815, 0.0895803
27.0433, 0.425623, 0.0907593
27.1099, 0.429414, 0.0921235
27.1765, 0.432272, 0.0932407
27.2432, 0.437105, 0.0960432
27.3098, 0.442975, 0.100327
27.3764, 0.448994, 0.104469
27.443, 0.45484, 0.110302
27.5096, 0.46208, 0.113938
27.5762, 0.467623, 0.120426
27.6428, 0.47387, 0.126932
27.7094, 0.480938, 0.131346
27.776, 0.486389, 0.135086
27.8426, 0.492556, 0.14266
27.9092, 0.496006, 0.146222
27.9759, 0.500642, 0.154389
28.0425, 0.503858, 0.160247
28.1091, 0.508827, 0.169111
28.1757, 0.51158, 0.174673
28.2423, 0.515154, 0.179438
28.3089, 0.520531, 0.184574
28.3755, 0.523562, 0.18729
28.4421, 0.528105, 0.192031
28.5087, 0.532932, 0.192438
28.5753, 0.538494, 0.193772
28.6419, 0.542105, 0.192623
28.7086, 0.545611, 0.190111
28.7752, 0.548605, 0.188648
28.8418, 0.551303, 0.188006
28.9084, 0.554401, 0.188346
28.975, 0.558617, 0.187815
29.0416, 0.560864, 0.186543
29.1082, 0.562945, 0.189605
29.1748, 0.563981, 0.189654
29.2414, 0.56513, 0.192377
29.308, 0.567741, 0.193506
29.3746, 0.571025, 0.196296
29.4413, 0.575037, 0.19763
29.5079, 0.57813, 0.201401
29.5745, 0.580031, 0.204179
29.6411, 0.580019, 0.209765
29.7077, 0.580494, 0.214296
29.7743, 0.581981, 0.215173
29.8409, 0.5825, 0.216173
29.9075, 0.582821, 0.219173
29.9741, 0.581525, 0.219315
30.0407, 0.582482, 0.219901
30.1073, 0.581543, 0.220278
30.174, 0.581136, 0.218654
30.2406, 0.582457, 0.216364
30.3072, 0.583796, 0.213815
30.3738, 0.585698, 0.212889
30.4404, 0.588512, 0.211858
30.507, 0.590673, 0.210932
30.5736, 0.59221, 0.210994
30.6402, 0.593765, 0.210228
30.7068, 0.594938, 0.21016
30.7734, 0.596025, 0.209475
30.8401, 0.597278, 0.207179
30.9067, 0.598198, 0.20684
30.9733, 0.596802, 0.204784
31.0399, 0.596519, 0.204562
31.1065, 0.595432, 0.20429
31.1731, 0.594833, 0.201642
31.2397, 0.594574, 0.198173
31.3063, 0.595167, 0.203136
31.3729, 0.596586, 0.202833
31.4395, 0.597124, 0.204364
31.5061, 0.596586, 0.205951
31.5728, 0.59637, 0.207204
31.6394, 0.597531, 0.205698
31.706, 0.598698, 0.205648
31.7726, 0.59858, 0.202963
31.8392, 0.599006, 0.20163
31.9058, 0.598241, 0.193
31.9724, 0.597296, 0.189302
32.039, 0.596735, 0.184407
32.1056, 0.597617, 0.18079
32.1722, 0.598228, 0.173815
32.2388, 0.598086, 0.169173
32.3055, 0.597432, 0.165957
32.3721, 0.597698, 0.162759
32.4387, 0.597414, 0.158759
32.5053, 0.599469, 0.159796
32.5719, 0.600543, 0.155278
32.6385, 0.6015, 0.150654
32.7051, 0.600549, 0.147407
32.7717, 0.602741, 0.14371
32.8383, 0.601623, 0.142611
32.9049, 0.60187, 0.136414
32.9715, 0.604006, 0.141179
33.0382, 0.606012, 0.140907
33.1048, 0.606611, 0.140093
33.1714, 0.608827, 0.142352
33.238, 0.611537, 0.146451
33.3046, 0.615623, 0.148975
33.3712, 0.618611, 0.150704
33.4378, 0.623599, 0.150852
33.5044, 0.628914, 0.145284
33.571, 0.634883, 0.139586
33.6376, 0.640827, 0.130883
33.7042, 0.646025, 0.126883
33.7709, 0.649833, 0.120784
33.8375, 0.655265, 0.111241
33.9041, 0.658556, 0.103469
33.9707, 0.663321, 0.0971852
34.0373, 0.667568, 0.0909753
34.1039, 0.670204, 0.090821
34.1705, 0.670821, 0.0885494
34.2371, 0.673339, 0.088
34.3037, 0.673469, 0.0874074
34.3703, 0.674377, 0.0896667
34.4369, 0.676488, 0.0902037
34.5036, 0.678512, 0.0922099
34.5702, 0.677926, 0.0942716
34.6368, 0.680086, 0.098821
34.7034, 0.681111, 0.102809
34.77, 0.681648, 0.10558
34.8366, 0.683173, 0.109778
34.9032, 0.68484, 0.114154
34.9698, 0.687086, 0.114827
35.0364, 0.687309, 0.119154
35.103, 0.687482, 0.122123
35.1696, 0.689741, 0.121105
35.2363, 0.689006, 0.119488
35.3029, 0.687679, 0.118778
35.3695, 0.687457, 0.116074
35.4361, 0.6855, 0.116525
35.5027, 0.685272, 0.11642
35.5693, 0.684543, 0.117759
35.6359, 0.68487, 0.117914
35.7025, 0.685377, 0.118086
35.7691, 0.683383, 0.118346
35.8357, 0.683981, 0.121302
35.9023, 0.683173, 0.121809
35.969, 0.684667, 0.126043
36.0356, 0.68537, 0.12708
36.1022, 0.685556, 0.128877
36.1688, 0.68587, 0.129617
36.2354, 0.684981, 0.129198
36.302, 0.682315, 0.137827
36.3686, 0.680519, 0.141951
36.4352, 0.677395, 0.14992
36.5018, 0.677321, 0.152463
36.5684, 0.674185, 0.157204
36.635, 0.671765, 0.159352
36.7017, 0.671265, 0.162253
36.7683, 0.670179, 0.164
36.8349, 0.670531, 0.158228
36.9015, 0.669901, 0.152611
36.9681, 0.672019, 0.145562
37.0347, 0.672154, 0.137691
37.1013, 0.672691, 0.132494
37.1679, 0.67342, 0.125704
37.2345, 0.672907, 0.117691
37.3011, 0.671969, 0.11129
37.3678, 0.670623, 0.106722
37.4344, 0.668914, 0.108315
37.501, 0.667815, 0.110395
37.5676, 0.666531, 0.112932
37.6342, 0.665019, 0.117907
37.7008, 0.663586, 0.125068
37.7674, 0.662901, 0.131327
37.834, 0.663173, 0.137333
37.9006, 0.664377, 0.147272
37.9672, 0.665519, 0.166975
38.0338, 0.666401, 0.180932
38.1005, 0.668043, 0.192759
38.1671, 0.669142, 0.204105
38.2337, 0.671722, 0.212438
38.3003, 0.672753, 0.221735
38.3669, 0.676309, 0.224383
38.4335, 0.67884, 0.225438
38.5001, 0.679253, 0.211327
38.5667, 0.681377, 0.196025
38.6333, 0.684445, 0.174765
38.6999, 0.685784, 0.155265
38.7665, 0.687827, 0.140352
38.8332, 0.689605, 0.12213
38.8998, 0.691401, 0.105444
38.9664, 0.692642, 0.0873457
39.033, 0.694759, 0.0740247
39.0996, 0.699284, 0.0716605
39.1662, 0.700377, 0.0682901
39.2328, 0.702599, 0.0690123
39.2994, 0.704661, 0.0705617
39.366, 0.706049, 0.0697284
39.4326, 0.706586, 0.0686975
39.4992, 0.710185, 0.0710062
39.5659, 0.713457, 0.074537
39.6325, 0.709191, 0.0822222
39.6991, 0.70787, 0.0847407
39.7657, 0.707605, 0.0869012
39.8323, 0.707407, 0.0896975
39.8989, 0.709586, 0.0928272
39.9655, 0.71084, 0.0965926
40.0321, 0.712728, 0.0989506
40.0987, 0.715549, 0.103444
40.1653, 0.717599, 0.104198
40.2319, 0.722747, 0.100716
40.2986, 0.727716, 0.100914
40.3652, 0.732401, 0.100864
40.4318, 0.73587, 0.0974753
40.4984, 0.739735, 0.0978951
40.565, 0.743185, 0.0965309
40.6316, 0.745864, 0.096716
40.6982, 0.748815, 0.0967469
40.7648, 0.750642, 0.0960679
40.8314, 0.753932, 0.0997716
40.898, 0.755438, 0.101191
40.9646, 0.756648, 0.103222
41.0313, 0.759309, 0.106086
41.0979, 0.759673, 0.108389
41.1645, 0.761333, 0.109685
41.2311, 0.762926, 0.111914
41.2977, 0.76358, 0.115012
41.3643, 0.764111, 0.117358
41.4309, 0.764259, 0.118716
41.4975, 0.762284, 0.119469
41.5641, 0.764, 0.120951
41.6307, 0.763407, 0.12184
41.6973, 0.765432, 0.123457
41.764, 0.766025, 0.125309
41.8306, 0.764901, 0.125284
41.8972, 0.765173, 0.124679
41.9638, 0.765037, 0.12279
42.0304, 0.765031, 0.122556
42.097, 0.764636, 0.121864
42.1636, 0.765154, 0.119969
42.2302, 0.76729, 0.121167
42.2968, 0.767512, 0.118833
42.3634, 0.767698, 0.113599
42.43, 0.768407, 0.112451
42.4967, 0.769772, 0.11192
42.5633, 0.770086, 0.11
42.6299, 0.770062, 0.10863
42.6965, 0.771796, 0.107877
42.7631, 0.772482, 0.104093
42.8297, 0.773951, 0.101049
42.8963, 0.774728, 0.10016
42.9629, 0.77729, 0.108617
43.0295, 0.779, 0.112654
43.0961, 0.780901, 0.114981
43.1627, 0.782864, 0.116599
43.2294, 0.785549, 0.118593
43.296, 0.787852, 0.120488
43.3626, 0.789272, 0.120796
43.4292, 0.789506, 0.122031
43.4958, 0.790099, 0.118327
43.5624, 0.790025, 0.112951
43.629, 0.790667, 0.107864
43.6956, 0.790914, 0.103272
43.7622, 0.791815, 0.0970988
43.8288, 0.793352, 0.0956667
43.8954, 0.793796, 0.0924259
43.9621, 0.795358, 0.0878272
44.0287, 0.797735, 0.0871605
44.0953, 0.798241, 0.0880494
44.1619, 0.80029, 0.0867407
44.2285, 0.8015, 0.0871543
44.2951, 0.80113, 0.0884012
44.3617, 0.801685, 0.0888889
44.4283, 0.800654, 0.0867161
44.4949, 0.800321, 0.0872037
44.5615, 0.799383, 0.0877469
44.6282, 0.798772, 0.0931111
44.6948, 0.799957, 0.0971605
44.7614, 0.798432, 0.0992284
44.828, 0.796475, 0.104469
44.8946, 0.797438, 0.106599
44.9612, 0.798395, 0.111852
45.0278, 0.799358, 0.113864
45.0944, 0.798586, 0.116741
45.161, 0.800481, 0.117352
45.2276, 0.800889, 0.114759
45.2942, 0.801358, 0.113586
45.3609, 0.803444, 0.112364
45.4275, 0.803525, 0.108315
45.4941, 0.804296, 0.107864
45.5607, 0.80529, 0.105877
45.6273, 0.804735, 0.102284
45.6939, 0.80434, 0.100531
45.7605, 0.804562, 0.0999074
45.8271, 0.805352, 0.0987469
45.8937, 0.80579, 0.0965247
45.9603, 0.805099, 0.0962654
46.0269, 0.805025, 0.094784
46.0936, 0.805117, 0.0924876
46.1602, 0.806142, 0.0913766
46.2268, 0.807951, 0.0912222
46.2934, 0.807562, 0.0959383
46.36, 0.807988, 0.0981543
46.4266, 0.805673, 0.0992963
46.4932, 0.806167, 0.103031
46.5598, 0.806117, 0.105722
46.6264, 0.805864, 0.107019
46.693, 0.80558, 0.109395
46.7596, 0.80487, 0.111006
46.8263, 0.804216, 0.107648
46.8929, 0.803414, 0.1055
46.9595, 0.805377, 0.100747
47.0261, 0.807241, 0.0967531
47.0927, 0.808914, 0.0920679
47.1593, 0.810562, 0.0867593
47.2259, 0.810969, 0.0817407
47.2925, 0.814722, 0.080463
