Time of video, Queue Density, Dynamic Density
0.0666092, 0.0329938, 0.00166667
0.133218, 0.0546605, 0.0140278
0.199828, 0.0743133, 0.0215046
0.266437, 0.0957176, 0.034375
0.333046, 0.118079, 0.0493287
0.399655, 0.140162, 0.064375
0.466264, 0.163866, 0.0805324
0.532873, 0.186829, 0.097091
0.599483, 0.210162, 0.113094
0.666092, 0.215702, 0.129128
0.732701, 0.220046, 0.139491
0.79931, 0.224784, 0.148133
0.865919, 0.226836, 0.154167
0.932529, 0.230494, 0.158472
0.999138, 0.231296, 0.158889
1.06575, 0.234444, 0.159753
1.13236, 0.234537, 0.160231
1.19897, 0.23733, 0.15679
1.26557, 0.240571, 0.155571
1.33218, 0.238503, 0.153997
1.39879, 0.240355, 0.151775
1.4654, 0.242793, 0.150602
1.53201, 0.24412, 0.149398
1.59862, 0.247299, 0.143673
1.66523, 0.249306, 0.140556
1.73184, 0.255, 0.138735
1.79845, 0.255895, 0.133519
1.86506, 0.255988, 0.130802
1.93167, 0.261173, 0.130031
1.99828, 0.262377, 0.125957
2.06488, 0.263858, 0.124969
2.13149, 0.264043, 0.123519
2.1981, 0.263827, 0.122531
2.26471, 0.26463, 0.125864
2.33132, 0.265926, 0.126636
2.39793, 0.26429, 0.129506
2.46454, 0.264691, 0.131698
2.53115, 0.262963, 0.133951
2.59776, 0.264198, 0.136204
2.66437, 0.264198, 0.134136
2.73098, 0.263765, 0.134475
2.79759, 0.263981, 0.136049
2.86419, 0.263272, 0.133148
2.9308, 0.260895, 0.130926
2.99741, 0.26608, 0.129661
3.06402, 0.267469, 0.128765
3.13063, 0.272685, 0.129228
3.19724, 0.275617, 0.126204
3.26385, 0.279012, 0.125926
3.33046, 0.283735, 0.125
3.39707, 0.291265, 0.12392
3.46368, 0.29821, 0.123858
3.53029, 0.306296, 0.124722
3.5969, 0.310864, 0.12321
3.6635, 0.316636, 0.123148
3.73011, 0.319352, 0.123704
3.79672, 0.322315, 0.124043
3.86333, 0.328642, 0.125278
3.92994, 0.334722, 0.127284
3.99655, 0.33642, 0.127809
4.06316, 0.340093, 0.127377
4.12977, 0.344259, 0.130926
4.19638, 0.347191, 0.132407
4.26299, 0.346497, 0.134414
4.3296, 0.349267, 0.13608
4.39621, 0.35081, 0.135802
4.46282, 0.349761, 0.134568
4.52942, 0.345193, 0.135093
4.59603, 0.343727, 0.132191
4.66264, 0.340162, 0.13608
4.72925, 0.333526, 0.133426
4.79586, 0.330779, 0.13142
4.86247, 0.328056, 0.127315
4.92908, 0.323889, 0.12463
4.99569, 0.321698, 0.121019
5.0623, 0.322685, 0.117222
5.12891, 0.326157, 0.113796
5.19552, 0.327284, 0.108889
5.26213, 0.334012, 0.102006
5.32873, 0.340617, 0.0975
5.39534, 0.34642, 0.0966049
5.46195, 0.352037, 0.0938889
5.52856, 0.360895, 0.0940123
5.59517, 0.369105, 0.0949691
5.66178, 0.374568, 0.0958951
5.72839, 0.383056, 0.10142
5.795, 0.38963, 0.105432
5.86161, 0.396358, 0.113735
5.92822, 0.398364, 0.120988
5.99483, 0.402315, 0.128086
6.06144, 0.409414, 0.138333
6.12804, 0.411481, 0.1425
6.19465, 0.411173, 0.147809
6.26126, 0.41537, 0.154691
6.32787, 0.40966, 0.162778
6.39448, 0.41071, 0.168735
6.46109, 0.41, 0.172809
6.5277, 0.407747, 0.178611
6.59431, 0.408796, 0.181358
6.66092, 0.408086, 0.183704
6.72753, 0.408117, 0.185586
6.79414, 0.407161, 0.188364
6.86075, 0.40463, 0.184074
6.92735, 0.407531, 0.181512
6.99396, 0.408395, 0.176235
7.06057, 0.40821, 0.172068
7.12718, 0.411204, 0.168179
7.19379, 0.415154, 0.167191
7.2604, 0.417778, 0.163765
7.32701, 0.420401, 0.163519
7.39362, 0.425185, 0.162716
7.46023, 0.430216, 0.163673
7.52684, 0.433889, 0.167778
7.59345, 0.438889, 0.169877
7.66006, 0.443117, 0.173117
7.72666, 0.448395, 0.176049
7.79327, 0.451574, 0.177932
7.85988, 0.45463, 0.179105
7.92649, 0.458395, 0.182222
7.9931, 0.457932, 0.185556
8.05971, 0.457562, 0.189259
8.12632, 0.459568, 0.1925
8.19293, 0.46162, 0.196265
8.25954, 0.462739, 0.199105
8.32615, 0.46669, 0.203056
8.39276, 0.467585, 0.20392
8.45937, 0.468573, 0.204892
8.52598, 0.467461, 0.207955
8.59258, 0.469282, 0.208789
8.65919, 0.469498, 0.20814
8.7258, 0.470486, 0.207245
8.79241, 0.471096, 0.205378
8.85902, 0.472608, 0.203958
8.92563, 0.473935, 0.206983
8.99224, 0.473133, 0.207755
9.05885, 0.473441, 0.207608
9.12546, 0.474336, 0.207824
9.19207, 0.474954, 0.207238
9.25868, 0.475386, 0.20517
9.32529, 0.476049, 0.206636
9.39189, 0.47858, 0.207407
9.4585, 0.477222, 0.208981
9.52511, 0.473735, 0.207407
9.59172, 0.470833, 0.204414
9.65833, 0.469429, 0.205571
9.72494, 0.465394, 0.206026
9.79155, 0.462778, 0.204699
9.85816, 0.460918, 0.203958
9.92477, 0.462276, 0.202739
9.99138, 0.460378, 0.201512
10.058, 0.456682, 0.199198
10.1246, 0.457037, 0.197839
10.1912, 0.45723, 0.190216
10.2578, 0.45571, 0.183696
10.3244, 0.455764, 0.179823
10.391, 0.457731, 0.174985
10.4576, 0.457176, 0.169552
10.5243, 0.457515, 0.162168
10.5909, 0.456134, 0.156852
10.6575, 0.456073, 0.148681
10.7241, 0.454722, 0.143125
10.7907, 0.451281, 0.139545
10.8573, 0.45233, 0.135069
10.9239, 0.452948, 0.132207
10.9905, 0.45196, 0.128364
11.0571, 0.450417, 0.124576
11.1237, 0.446373, 0.122824
11.1903, 0.444275, 0.122461
11.257, 0.444136, 0.121412
11.3236, 0.43841, 0.126474
11.3902, 0.437824, 0.128356
11.4568, 0.434614, 0.131752
11.5234, 0.432577, 0.134221
11.59, 0.430015, 0.135216
11.6566, 0.427176, 0.136543
11.7232, 0.42517, 0.13858
11.7898, 0.425448, 0.138302
11.8564, 0.421528, 0.131821
11.923, 0.421898, 0.126852
11.9897, 0.421497, 0.123457
12.0563, 0.421836, 0.119167
12.1229, 0.420324, 0.115093
12.1895, 0.420231, 0.110833
12.2561, 0.418966, 0.106019
12.3227, 0.419383, 0.103519
12.3893, 0.418241, 0.100586
12.4559, 0.41858, 0.0992901
12.5225, 0.418827, 0.100154
12.5891, 0.4175, 0.0949074
12.6557, 0.416142, 0.0928704
12.7224, 0.415926, 0.0882407
12.789, 0.414661, 0.0864815
12.8556, 0.414599, 0.0828086
12.9222, 0.41358, 0.079537
12.9888, 0.414969, 0.0826235
13.0554, 0.412469, 0.0812963
13.122, 0.412469, 0.0813272
13.1886, 0.412315, 0.0845679
13.2552, 0.412006, 0.082716
13.3218, 0.410586, 0.0860185
13.3884, 0.4125, 0.0870679
13.4551, 0.411667, 0.0874074
13.5217, 0.412994, 0.0808025
13.5883, 0.413858, 0.0750926
13.6549, 0.413735, 0.0705247
13.7215, 0.41537, 0.0658333
13.7881, 0.416327, 0.0587654
13.8547, 0.417284, 0.0549383
13.9213, 0.418951, 0.0489198
13.9879, 0.418796, 0.0431481
14.0545, 0.418534, 0.0375463
14.1211, 0.41814, 0.0380941
14.1878, 0.418349, 0.0378472
14.2544, 0.41875, 0.0372299
14.321, 0.418102, 0.0367978
14.3876, 0.418225, 0.0361188
14.4542, 0.41767, 0.0336806
14.5208, 0.416312, 0.0348843
14.5874, 0.417176, 0.0345139
14.654, 0.415687, 0.0388889
14.7206, 0.417253, 0.0412654
14.7872, 0.415679, 0.0434259
14.8538, 0.413488, 0.0448765
14.9205, 0.411605, 0.045
14.9871, 0.409259, 0.0444136
15.0537, 0.40892, 0.0466049
15.1203, 0.409198, 0.0461728
15.1869, 0.409383, 0.0454012
15.2535, 0.406111, 0.0420679
15.3201, 0.404846, 0.0392593
15.3867, 0.40392, 0.0348765
15.4533, 0.404969, 0.0327469
15.5199, 0.405833, 0.031358
15.5865, 0.407191, 0.0317284
15.6532, 0.407778, 0.0325926
15.7198, 0.407778, 0.0337346
15.7864, 0.407222, 0.0336111
15.853, 0.410926, 0.035
15.9196, 0.411111, 0.0331173
15.9862, 0.410185, 0.0336728
16.0528, 0.412037, 0.0355864
16.1194, 0.412284, 0.0374074
16.186, 0.410586, 0.0380864
16.2526, 0.411049, 0.0366975
16.3192, 0.416173, 0.0408951
16.3859, 0.41608, 0.041142
16.4525, 0.418387, 0.0421605
16.5191, 0.416782, 0.0430864
16.5857, 0.418696, 0.0421296
16.6523, 0.418789, 0.0451543
16.7189, 0.418387, 0.0441049
16.7855, 0.419406, 0.0434259
16.8521, 0.420424, 0.0399383
16.9187, 0.418465, 0.0353086
16.9853, 0.417809, 0.0315741
17.052, 0.416914, 0.027963
17.1186, 0.418827, 0.0247531
17.1852, 0.419815, 0.0242901
17.2518, 0.421049, 0.0212963
17.3184, 0.424352, 0.0187963
17.385, 0.426574, 0.0157099
17.4516, 0.427006, 0.0149691
17.5182, 0.42821, 0.0143827
17.5848, 0.427747, 0.0135494
17.6514, 0.427562, 0.012284
17.718, 0.427932, 0.0133333
17.7847, 0.427809, 0.0112963
17.8513, 0.426944, 0.0112963
17.9179, 0.424043, 0.00919753
17.9845, 0.421914, 0.0138272
18.0511, 0.421019, 0.0127469
18.1177, 0.419722, 0.0159877
18.1843, 0.420525, 0.0182099
18.2509, 0.419877, 0.0199691
18.3175, 0.418426, 0.0218827
18.3841, 0.419383, 0.0251852
18.4507, 0.41784, 0.0271605
18.5174, 0.419745, 0.0301852
18.584, 0.418603, 0.0307099
18.6506, 0.420918, 0.0331481
18.7172, 0.423696, 0.0340123
18.7838, 0.425918, 0.0349074
18.8504, 0.428603, 0.0373765
18.917, 0.42814, 0.0396914
18.9836, 0.431397, 0.0418519
19.0502, 0.435309, 0.0443827
19.1168, 0.437994, 0.046358
19.1834, 0.441327, 0.047284
19.2501, 0.441204, 0.0488889
19.3167, 0.440895, 0.0507716
19.3833, 0.439784, 0.0508025
19.4499, 0.438457, 0.0519136
19.5165, 0.440093, 0.0521914
19.5831, 0.439568, 0.0499383
19.6497, 0.433518, 0.0560803
19.7163, 0.429738, 0.0593519
19.7829, 0.426775, 0.0620062
19.8495, 0.42642, 0.0649537
19.9161, 0.424661, 0.0666127
19.9828, 0.425062, 0.066088
20.0494, 0.424815, 0.0697917
20.116, 0.425494, 0.0712114
20.1826, 0.42537, 0.0687731
20.2492, 0.426651, 0.0650694
20.3158, 0.429244, 0.0612732
20.3824, 0.428796, 0.0581559
20.449, 0.428457, 0.051358
20.5156, 0.429599, 0.0503086
20.5822, 0.428302, 0.0460803
20.6488, 0.428796, 0.0445988
20.7155, 0.426543, 0.0433642
20.7821, 0.426883, 0.0416975
20.8487, 0.426451, 0.0420679
20.9153, 0.425988, 0.0427469
20.9819, 0.426574, 0.0428086
21.0485, 0.427346, 0.0438889
21.1151, 0.428951, 0.0422222
21.1817, 0.426173, 0.0440432
21.2483, 0.426111, 0.0441049
21.3149, 0.419691, 0.0485031
21.3815, 0.417747, 0.0505941
21.4482, 0.41534, 0.051767
21.5148, 0.41287, 0.0550386
21.5814, 0.410463, 0.0557176
21.648, 0.408086, 0.0578472
21.7146, 0.404907, 0.0600386
21.7812, 0.404583, 0.0603164
21.8478, 0.404005, 0.0592978
21.9144, 0.406073, 0.055463
21.981, 0.407184, 0.0515741
22.0476, 0.406474, 0.046142
22.1142, 0.406875, 0.0429012
22.1809, 0.409684, 0.0396605
22.2475, 0.411103, 0.0366975
22.3141, 0.413665, 0.0332716
22.3807, 0.413673, 0.0296296
22.4473, 0.415247, 0.0285802
22.5139, 0.41608, 0.026821
22.5805, 0.417809, 0.0254321
22.6471, 0.419969, 0.0265432
22.7137, 0.422407, 0.0254321
22.7803, 0.422253, 0.0272222
22.8469, 0.424475, 0.028179
22.9136, 0.425772, 0.0298148
22.9802, 0.420031, 0.0337963
23.0468, 0.418241, 0.0371605
23.1134, 0.420247, 0.0380247
23.18, 0.420741, 0.0429938
23.2466, 0.41963, 0.0461728
23.3132, 0.418611, 0.0515741
23.3798, 0.418395, 0.0538117
23.4464, 0.416327, 0.0583796
23.513, 0.413796, 0.058071
23.5796, 0.416667, 0.058071
23.6463, 0.420154, 0.0567438
23.7129, 0.420432, 0.0590895
23.7795, 0.4225, 0.0606327
23.8461, 0.422037, 0.0589969
23.9127, 0.424043, 0.0557407
23.9793, 0.425494, 0.0549074
24.0459, 0.425586, 0.0503086
24.1125, 0.428025, 0.0504938
24.1791, 0.429352, 0.0496605
24.2457, 0.427099, 0.0460802
24.3124, 0.428765, 0.0453395
24.379, 0.428642, 0.0424074
24.4456, 0.428117, 0.041142
24.5122, 0.427407, 0.0409259
24.5788, 0.427639, 0.039784
24.6454, 0.43088, 0.0424691
24.712, 0.431435, 0.0425926
24.7786, 0.431019, 0.0423457
24.8452, 0.432014, 0.0430864
24.9118, 0.429792, 0.0418827
24.9784, 0.4301, 0.042716
25.0451, 0.430039, 0.0427778
25.1117, 0.428974, 0.0454938
25.1783, 0.425949, 0.0424691
25.2449, 0.423773, 0.041821
25.3115, 0.422446, 0.0390123
25.3781, 0.419892, 0.0393981
25.4447, 0.422253, 0.041466
25.5113, 0.423457, 0.0421142
25.5779, 0.42375, 0.0435957
25.6445, 0.425394, 0.0445216
25.7111, 0.42956, 0.0455093
25.7778, 0.433603, 0.0465432
25.8444, 0.437153, 0.0497917
25.911, 0.441968, 0.0519676
25.9776, 0.445965, 0.0561497
26.0442, 0.449174, 0.0577238
26.1108, 0.452076, 0.061304
26.1774, 0.455417, 0.0638966
26.244, 0.458349, 0.0688657
26.3106, 0.457222, 0.0724151
26.3772, 0.457809, 0.0792593
26.4438, 0.460154, 0.0814198
26.5105, 0.460123, 0.0870062
26.5771, 0.459722, 0.0905864
26.6437, 0.463735, 0.0941975
26.7103, 0.463302, 0.096142
26.7769, 0.464506, 0.0988889
26.8435, 0.466944, 0.0974383
26.9101, 0.468796, 0.0987191
26.9767, 0.471204, 0.0964506
27.0433, 0.474383, 0.0966204
27.1099, 0.478981, 0.099429
27.1765, 0.483673, 0.0995525
27.2432, 0.485463, 0.102238
27.3098, 0.491173, 0.105972
27.3764, 0.498611, 0.110849
27.443, 0.50392, 0.119645
27.5096, 0.510463, 0.125586
27.5762, 0.517839, 0.130401
27.6428, 0.523858, 0.138873
27.7094, 0.527731, 0.144954
27.776, 0.534051, 0.150633
27.8426, 0.541535, 0.157238
27.9092, 0.544869, 0.16088
27.9759, 0.547369, 0.17304
28.0425, 0.548912, 0.180633
28.1091, 0.550733, 0.187269
28.1757, 0.552585, 0.194599
28.2423, 0.554591, 0.201728
28.3089, 0.55966, 0.209444
28.3755, 0.561358, 0.212546
28.4421, 0.565286, 0.220316
28.5087, 0.567955, 0.217076
28.5753, 0.572423, 0.216358
28.6419, 0.576705, 0.214012
28.7086, 0.579861, 0.214352
28.7752, 0.584306, 0.211451
28.8418, 0.586867, 0.210309
28.9084, 0.589707, 0.208364
28.975, 0.592153, 0.207585
29.0416, 0.593696, 0.204915
29.1082, 0.596636, 0.209321
29.1748, 0.596613, 0.211574
29.2414, 0.596404, 0.214691
29.308, 0.59909, 0.214846
29.3746, 0.600031, 0.216543
29.4413, 0.602839, 0.218025
29.5079, 0.604444, 0.219383
29.5745, 0.605031, 0.219383
29.6411, 0.603812, 0.228025
29.7077, 0.603009, 0.22966
29.7743, 0.603796, 0.23392
29.8409, 0.601991, 0.235247
29.9075, 0.602006, 0.234815
29.9741, 0.602917, 0.236728
30.0407, 0.600849, 0.238765
30.1073, 0.599938, 0.239228
30.174, 0.60054, 0.237963
30.2406, 0.602361, 0.234105
30.3072, 0.599259, 0.231883
30.3738, 0.60017, 0.22858
30.4404, 0.603426, 0.225772
30.507, 0.60483, 0.225586
30.5736, 0.604182, 0.226019
30.6402, 0.605556, 0.220602
30.7068, 0.605972, 0.219961
30.7734, 0.607184, 0.220417
30.8401, 0.607207, 0.218179
30.9067, 0.610316, 0.218495
30.9733, 0.61088, 0.218843
31.0399, 0.611389, 0.217724
31.1065, 0.61348, 0.217531
31.1731, 0.613912, 0.216759
31.2397, 0.613943, 0.218634
31.3063, 0.613889, 0.222608
31.3729, 0.612099, 0.226775
31.4395, 0.614059, 0.22936
31.5061, 0.614066, 0.232809
31.5728, 0.614313, 0.232168
31.6394, 0.616003, 0.236049
31.706, 0.616003, 0.23716
31.7726, 0.617361, 0.235525
31.8392, 0.617207, 0.22892
31.9058, 0.61882, 0.22537
31.9724, 0.622222, 0.218519
32.039, 0.624414, 0.212068
32.1056, 0.624043, 0.206605
32.1722, 0.627407, 0.199846
32.2388, 0.627932, 0.19358
32.3055, 0.628858, 0.188117
32.3721, 0.627593, 0.181543
32.4387, 0.627161, 0.181852
32.5053, 0.627238, 0.178981
32.5719, 0.626582, 0.168673
32.6385, 0.627269, 0.162253
32.7051, 0.626296, 0.159167
32.7717, 0.625301, 0.154444
32.8383, 0.624583, 0.152654
32.9049, 0.624961, 0.148519
32.9715, 0.623804, 0.154722
33.0382, 0.626605, 0.15571
33.1048, 0.628032, 0.156142
33.1714, 0.630664, 0.161451
33.238, 0.63517, 0.166636
33.3046, 0.63885, 0.173549
33.3712, 0.644537, 0.18071
33.4378, 0.650872, 0.184784
33.5044, 0.657106, 0.177315
33.571, 0.664105, 0.168164
33.6376, 0.670617, 0.158002
33.7042, 0.677346, 0.151057
33.7709, 0.681404, 0.1451
33.8375, 0.686705, 0.138094
33.9041, 0.691427, 0.12581
33.9707, 0.693372, 0.114792
34.0373, 0.69615, 0.106921
34.1039, 0.699506, 0.102276
34.1705, 0.701667, 0.101458
34.2371, 0.703519, 0.0991281
34.3037, 0.705432, 0.0988426
34.3703, 0.70706, 0.0989352
34.4369, 0.707014, 0.0988735
34.5036, 0.709136, 0.098534
34.5702, 0.709444, 0.101497
34.6368, 0.709383, 0.114306
34.7034, 0.710394, 0.11902
34.77, 0.711782, 0.12544
34.8366, 0.710579, 0.130216
34.9032, 0.71314, 0.137423
34.9698, 0.713758, 0.139275
35.0364, 0.715262, 0.140386
35.103, 0.714491, 0.145509
35.1696, 0.715795, 0.143395
35.2363, 0.719375, 0.1376
35.3029, 0.717708, 0.134298
35.3695, 0.716134, 0.132137
35.4361, 0.715995, 0.130332
35.5027, 0.714869, 0.129313
35.5693, 0.713989, 0.126597
35.6359, 0.714375, 0.128156
35.7025, 0.715054, 0.127415
35.7691, 0.714136, 0.130571
35.8357, 0.711759, 0.135201
35.9023, 0.711265, 0.136343
35.969, 0.710972, 0.137639
36.0356, 0.710185, 0.138194
36.1022, 0.710818, 0.139985
36.1688, 0.709522, 0.142377
36.2354, 0.708094, 0.143179
36.302, 0.702392, 0.154228
36.3686, 0.69858, 0.159167
36.4352, 0.697948, 0.164676
36.5018, 0.695201, 0.173411
36.5684, 0.69463, 0.182269
36.635, 0.693503, 0.191991
36.7017, 0.692762, 0.196343
36.7683, 0.690764, 0.197114
36.8349, 0.691821, 0.193225
36.9015, 0.692176, 0.185386
36.9681, 0.69537, 0.17929
37.0347, 0.695062, 0.16858
37.1013, 0.695571, 0.159475
37.1679, 0.696605, 0.14858
37.2345, 0.696821, 0.136775
37.3011, 0.696667, 0.126528
37.3678, 0.696173, 0.121744
37.4344, 0.693673, 0.123596
37.501, 0.692901, 0.125262
37.5676, 0.690926, 0.127269
37.6342, 0.690123, 0.134892
37.7008, 0.688889, 0.14483
37.7674, 0.687747, 0.154074
37.834, 0.687593, 0.163611
37.9006, 0.68821, 0.176975
37.9672, 0.689414, 0.202161
38.0338, 0.690895, 0.214969
38.1005, 0.693086, 0.228858
38.1671, 0.695556, 0.239691
38.2337, 0.697469, 0.250432
38.3003, 0.700123, 0.260802
38.3669, 0.702315, 0.265772
38.4335, 0.704228, 0.267161
38.5001, 0.705864, 0.251944
38.5667, 0.706944, 0.232191
38.6333, 0.709722, 0.20784
38.6999, 0.71287, 0.188148
38.7665, 0.714815, 0.168735
38.8332, 0.717315, 0.149877
38.8998, 0.720247, 0.129969
38.9664, 0.720988, 0.11034
39.033, 0.722284, 0.0944753
39.0996, 0.724661, 0.086358
39.1662, 0.726574, 0.0825
39.2328, 0.727469, 0.0827778
39.2994, 0.730401, 0.0814506
39.366, 0.730401, 0.080463
39.4326, 0.732531, 0.0800309
39.4992, 0.731883, 0.0809877
39.5659, 0.733997, 0.0828395
39.6325, 0.736651, 0.0914506
39.6991, 0.737114, 0.0965124
39.7657, 0.738742, 0.10108
39.8323, 0.744174, 0.102377
39.8989, 0.748897, 0.107315
39.9655, 0.75294, 0.109321
40.0321, 0.75794, 0.113395
40.0987, 0.762832, 0.116605
40.1653, 0.768634, 0.11716
40.2319, 0.775347, 0.11642
40.2986, 0.781574, 0.113488
40.3652, 0.789198, 0.111327
40.4318, 0.792377, 0.10821
40.4984, 0.795957, 0.108148
40.565, 0.800031, 0.10679
40.6316, 0.798025, 0.106358
40.6982, 0.801404, 0.105957
40.7648, 0.804136, 0.105586
40.8314, 0.80412, 0.106914
40.898, 0.805432, 0.109259
40.9646, 0.805633, 0.110201
41.0313, 0.807624, 0.113534
41.0979, 0.809059, 0.116003
41.1645, 0.809907, 0.11875
41.2311, 0.81216, 0.121528
41.2977, 0.81284, 0.127731
41.3643, 0.81284, 0.132515
41.4309, 0.814444, 0.136096
41.4975, 0.816605, 0.140957
41.5641, 0.818472, 0.144043
41.6307, 0.818704, 0.145401
41.6973, 0.820262, 0.150093
41.764, 0.820803, 0.15284
41.8306, 0.821312, 0.149938
41.8972, 0.822377, 0.148318
41.9638, 0.822392, 0.147369
42.0304, 0.824167, 0.144437
42.097, 0.825015, 0.139961
42.1636, 0.822685, 0.136443
42.2302, 0.824907, 0.13527
42.2968, 0.822948, 0.133449
42.3634, 0.82392, 0.126659
42.43, 0.824583, 0.12527
42.4967, 0.825185, 0.126235
42.5633, 0.826126, 0.122685
42.6299, 0.82446, 0.1225
42.6965, 0.823951, 0.122623
42.7631, 0.824691, 0.12142
42.8297, 0.824182, 0.121821
42.8963, 0.825648, 0.120401
42.9629, 0.829768, 0.125895
43.0295, 0.83037, 0.129722
43.0961, 0.833056, 0.130031
43.1627, 0.834853, 0.133302
43.2294, 0.836644, 0.134259
43.296, 0.837477, 0.137562
43.3626, 0.840532, 0.136698
43.4292, 0.840347, 0.136975
43.4958, 0.839452, 0.128457
43.5624, 0.83973, 0.124877
43.629, 0.840378, 0.120062
43.6956, 0.841559, 0.117006
43.7622, 0.841736, 0.11216
43.8288, 0.843989, 0.106358
43.8954, 0.846674, 0.102022
43.9621, 0.848557, 0.0983102
44.0287, 0.851397, 0.0941744
44.0953, 0.854391, 0.0957485
44.1619, 0.855193, 0.0946065
44.2285, 0.855748, 0.0936188
44.2951, 0.856451, 0.0934645
44.3617, 0.857346, 0.0930015
44.4283, 0.859321, 0.0924769
44.4949, 0.858272, 0.0953395
44.5615, 0.859506, 0.0963889
44.6282, 0.85554, 0.103796
44.6948, 0.853295, 0.107809
44.7614, 0.849552, 0.112562
44.828, 0.848426, 0.114568
44.8946, 0.847346, 0.119074
44.9612, 0.845525, 0.125772
45.0278, 0.842716, 0.130309
45.0944, 0.838889, 0.134074
45.161, 0.837654, 0.131682
45.2276, 0.83794, 0.128225
45.2942, 0.838218, 0.12517
45.3609, 0.838333, 0.126003
45.4275, 0.839961, 0.122207
45.4941, 0.839444, 0.11875
45.5607, 0.840008, 0.116713
45.6273, 0.841435, 0.111867
45.6939, 0.84348, 0.109043
45.7605, 0.844444, 0.109136
45.8271, 0.843426, 0.107037
45.8937, 0.843148, 0.105617
45.9603, 0.84409, 0.103364
46.0269, 0.845787, 0.10392
46.0936, 0.847299, 0.101543
46.1602, 0.846713, 0.0995062
46.2268, 0.846296, 0.0979784
46.2934, 0.846898, 0.10483
46.36, 0.847508, 0.107639
46.4266, 0.846914, 0.109367
46.4932, 0.847755, 0.11091
46.5598, 0.848156, 0.113256
46.6264, 0.847917, 0.113164
46.693, 0.847539, 0.117423
46.7596, 0.848333, 0.120525
46.8263, 0.849059, 0.116574
46.8929, 0.850563, 0.113704
46.9595, 0.849969, 0.107654
47.0261, 0.85189, 0.102593
47.0927, 0.853218, 0.0985802
47.1593, 0.854336, 0.0970833
47.2259, 0.856119, 0.0939661
47.2925, 0.855617, 0.0905401
47.3591, 0.855941, 0.0885957
47.4257, 0.856142, 0.0884105
